recovered_ecg
0.26217024467375216
0.4370036039923024
0.7473809172197279
0.5765076732435994
0.24624596990784586
0.5144602038076425
0.8053841055484587
0.9836935030532126
1.0786236746265119
1.054940617052968
0.7707808497666466
0.7694088120717848
1.011414631267773
1.1567597289105374
1.2798928361228685
1.4610675217996425
1.4972958125391767
1.1397719262385593
0.7395745730915881
0.6488279908535874
0.6131976233008203
0.41146760209101196
0.14027094128379192
0.09722417275531559
0.07722178997442986
-0.029098457618463636
-0.10504008887947824
-0.14879100624751163
-0.1021942744794605
-0.040787766830784444
-0.08822629483549527
-0.19011602165017505
-0.1164343782002808
0.045630468680705194
0.22489564581608734
0.3727235719322042
0.5923663156468408
0.8182045073150424
0.908318721360355
0.7635921219210431
0.6560335891761253
0.6595785675229013
0.8199895151255765
0.7175104231912144
0.5312177902904476
0.5488809599516489
0.5104734230625669
0.31130740760850095
0.08762434695612287
-0.032664984045027046
-0.039404352094413064
0.034218848105814714
0.053193878057955
0.012314349347582826
-0.00693280021012177
-0.007475962414508042
0.018490995315758485
0.06422092500253243
0.1583596969546193
0.1600587138214784
0.10333275371549125
-0.02312246398323775
-0.052254082319309725
-0.014153530268010917
0.034219131255685986
0.03465986950970523
-0.02440054316073259
0.09116486775808744
0.0920827263535687
0.11137871181487008
0.2503484951336463
0.38333573286791944
0.3236706558792821
0.24340960233089026
0.13285606266119387
0.12060474830282608
0.22473562568404826
0.3336920189936887
0.4626888185241109
0.31657522294952
0.40990175506653315
0.36230249737302045
0.33317129206778207
0.27942354971594785
0.10456817262723372
-0.0180134011589157
0.15435566179594784
0.10424192694169099
0.04366656600748242
-0.07254444277202754
-0.019261280958601912
0.052970712313308965
0.05021139588759671
0.08598820997633583
0.2803585455608828
0.4563617140511931
0.35942652970752387
0.18632976136364565
0.16738953502491905
0.15747237617382293
0.09910239064064363
0.0374773276325574
0.024953559460847652
0.11423010588212051
0.10203032817635849
-0.04888436134466945
-0.12012227851133389
-0.06475538456698826
-0.016818378842428705
-0.05671202471098585
-0.07327864049104482
-0.1198449666020483
-0.17658074896541975
-0.20190295399652947
-0.08877385840056398
0.07425717175853541
0.08388690281249664
0.04447982586271482
0.09388628562549645
0.10133017472679509
0.07184656373196147
0.06909148623803019
-0.041169598233608884
0.02288321090738532
0.17388027159931374
0.402602012061096
0.6469015202678462
0.7938282617140731
0.8014712206979159
0.6808600468125675
0.4181661205087168
0.23918142009749122
0.09720397173599704
0.0020853042291190116
-0.06839097677637979
-0.09623362442121125
-0.09340026264862888
-0.028108292120862743
0.036808326000942804
-0.023460002876169728
-0.042385411229924785
-0.061589875539000805
-0.039858195412574904
-0.10890824089480694
-0.19765370237657504
-0.1746584943613954
-0.1161146235707442
-0.013365029323699817
-0.02220597412794012
-0.05903597299622343
-0.09098530008583205
-0.18271864489576595
-0.14898133220199933
0.041002767863486334
0.12489906669761797
-0.0470130910002684
-0.18589315784304983
-0.16906120690886695
-0.07839730300429726
-0.07092970306532709
-0.11706538073231842
-0.15405986424069573
-0.03146047830525425
0.11487089183813626
0.24780303352605276
0.4062934754707441
0.593581935956818
0.7539208045893413
0.8514144923719758
0.783012673251475
0.6992115049775853
0.6106558694431539
0.6090805459238096
0.5231541921828797
0.3288756261111303
0.1568054944737579
0.05631164219873874
0.09551778062186689
0.06907895822101673
-0.04707348827154012
-0.21865816363391488
-0.25922488194120963
-0.13022836107642521
-0.01960498041368508
0.017803831021536265
-0.020204409185013317
-0.11379391274906048
-0.21589664809016507
-0.17821149170507522
0.0058255771204970275
0.07452980437874646
-0.11305374258688339
-0.28992895693767795
-0.25263248010538797
-0.20141492821112705
-0.10003852136218194
-0.02755919229381143
-0.07317681939511333
-0.14705336452154916
-0.1628124803055767
-0.10382876455879175
-0.037437341512164046
-0.0011136400353930487
-0.056118327800558476
-0.15309691424391225
-0.14841173984006367
-0.09738121037951386
-0.012588019254432536
-0.05856705430295489
-0.11840441307771798
-0.11436685258969126
-0.04779342513021628
-0.029114108844670195
-0.0972631632364353
-0.12225553892293739
-0.15646262075603146
-0.217312376180957
-0.2855161202287462
-0.2980611071300441
-0.27366050521133234
-0.2631600565816047
-0.30955201572777147
-0.2601976381402872
-0.2771996576417983
-0.2743391342416439
-0.24115445129772445
-0.11721903713909221
-0.08818909547989745
-0.054969726465321944
0.007776518199389015
0.1288933194663855
0.20303691831915782
0.10767037300660953
0.04384248840204674
-0.010986868572979258
0.0037318468238043967
0.11783092085591834
0.15783965728986787
0.13839819774309936
0.162379058668083
0.17863893247687523
0.07286452374833985
-0.02539336811138415
-0.018558747513963914
0.003931971052644645
-0.05073422138140382
-0.17299596971530673
-0.2206811542289322
-0.18645611651087435
-0.12202153533379034
-0.04462525149613772
-0.049665656815068515
-0.09756029897685281
-0.08454019505909072
-0.14481540358328804
-0.1656107204774292
-0.25373440705231504
-0.15320283045335037
-0.12678672400528412
-0.08736714800553136
-0.16301457087992433
-0.10753299942060734
-0.049595814001538785
0.03751686368861917
0.055624331730435794
0.10216514568063384
0.06609438902598963
0.04166309127263035
0.06823362410885103
0.09752787513472327
0.07355628354884158
0.13463037183558357
0.1299818970133751
0.17223061044020466
0.1835561532910428
0.10384685058832788
0.07643567634603299
0.14497399730392302
0.14010184162411554
0.15617070741632322
0.007983834141071733
-0.024358633428196885
-0.0642805210530144
-0.0050395498088422475
0.08506145079993788
0.15499058361477017
0.15185681384001082
0.08283818933725728
0.03278310666823919
0.1371109434872625
0.2254514565288641
0.14759069363556476
0.10601416204099823
0.14376367657994304
0.1916079979239893
0.15312034748847825
0.08889013217114866
0.005351341997781256
-0.10496677536346521
-0.271555865970985
-0.4639074093323573
-0.5392306746446233
-0.5457985656207587
-0.44303405517493744
-0.31298748264139964
-0.21853073265834466
-0.1415208208504578
-0.10931239240207247
-0.15972703698519364
-0.20591142509172167
-0.18416340464886066
-0.13258445363052324
-0.11675784338988152
-0.12891466349004377
-0.10326594994076882
-0.048046953050302155
0.013776004432340727
0.010255029276079464
-0.010771410104694068
-0.12170331402328616
-0.12374549398219536
-0.044562714643913814
0.015537722982982838
0.03785555339700125
-0.05031917961518384
-0.0358807805241671
0.011936678840596321
0.10665276400886547
0.0878482830434571
0.09958934986412793
0.09968972881730725
0.009548115109074273
0.00022647178504392462
0.022249231593410634
0.014947244747352262
-0.02449379972439278
0.08212954939397821
0.02108732045527595
-0.0695326618010651
-0.0631800744207649
-0.03221154978041263
0.1291623943600445
0.11280940878524315
0.004341666202396288
-0.031074251526312158
0.06791381512321426
0.05138432285084163
0.09852511553420137
0.03961793069561892
-0.015866801557634314
0.011839016533056801
0.05424188943027419
0.014240264094694532
0.02526415038806512
0.10337885653308271
0.0872264173110518
-0.03159664332217538
-0.020889307656579537
0.057835690640902215
0.10478514510307668
0.028978685002467308
-0.07175886161417094
-0.12269831653070729
-0.02734424048463535
0.0012018605548579364
-0.02522276897387976
-0.10258059496589111
-0.08522971881155855
-0.04553551850681736
-0.03200834274174358
-0.07077335673319862
-0.040614096945518874
-0.03006213983943451
0.0023216814589838153
-0.010490889218348842
0.03556430132910915
0.024345702281913795
-0.0604641185544621
-0.059629351030565436
0.006614667151674913
0.009374217495446091
-0.04332567423162936
-0.006296437868780258
-0.05337487549259656
-0.12057152078370137
-0.18848973461090646
-0.20001498727018935
-0.1346422180754957
-0.004625938036722621
0.031891518732320046
0.007382129347793698
-0.02594175898527515
-0.039603226156789434
0.023387380277768155
0.0644357422751839
-0.004831573299036163
-0.06587174259007628
-0.02432024481373296
0.11157035186078196
0.13651270860982695
0.13655074211484935
0.10794046231219212
0.08687602023996743
0.060493129316912364
0.048368683928208256
0.014472736649513263
-0.03858303016835285
-0.0209820226990865
0.008654820541982466
0.007708104295452378
-0.0029666604938901053
-0.03346598559106295
-0.06759585970866988
-0.14447106397747334
-0.21660814658564087
-0.1714487410143566
-0.1400708163949712
-0.08860989637163896
-0.08739814208997926
-0.07613328520444484
-0.030880286087646647
0.07152478612781726
0.12645456385632964
0.12496103593934293
-0.0036954150305978928
-0.0521531281296827
0.017269264387205496
0.07286545370557229
0.03322084145288123
-0.0038070993882718396
-0.010617868664327679
0.00812641940132286
0.024153673021416133
0.01212906745539627
-0.0015192722576868878
-0.0607443934038166
-0.09373667847200007
-0.038857076627702325
0.035483665779581286
0.04829692847501549
0.03985291544759456
0.022030506547576656
0.0030629327421201613
0.022081112912938572
0.08615461604533725
0.08743435754752849
0.05693325909215896
0.04057847784011065
0.06790583779029719
0.07902455225296678
0.12703217603834333
0.11523637985125679
0.13044556247797473
0.10320338949824048
0.04335341918171959
0.05821261777250253
0.14500385310141534
0.1681834836722343
0.17310840173411796
0.13329658391733706
0.1425623511114007
0.15441894912805754
0.1377248503159802
0.16932708481196634
0.15060370351467323
0.13352026198275535
0.12073704245448114
0.08879799104597152
0.07376157149065488
0.07278549388813338
0.08103561983534091
0.07424307699376387
0.08351605709055193
0.06755621389363684
0.06491015291500274
0.12207362405843863
0.18912518555203406
0.16832917608065484
0.11384712538995756
0.13993719860781037
0.18478380180923304
0.1726471048397683
0.08453333937439522
-0.036610371653835655
-0.09465325499268479
-0.10638245178711386
-0.13854912906575423
-0.1536720766841687
-0.10054439997324843
-0.12908407368049218
-0.13800240805053843
-0.1141415380699577
-0.09310462780092182
-0.10491797889272142
-0.11057243863643995
-0.08832638845157403
-0.03081939005429768
0.19933453310821178
0.5151390455475978
0.707707248784011
0.8094208356237282
0.9711288651447495
1.0015106361757828
0.8807001103525551
0.6176683218641675
0.2157300917840444
-0.12598035160334797
-0.3451717177916369
-0.4482835344378776
-0.43916284694955077
-0.3976300112353873
-0.3704737830249383
-0.2681214291171019
-0.31023717108558857
-0.2644579208005299
-0.2721901204626882
-0.2051436573091378
-0.11800754399008917
-0.16787075433980447
-0.18026252014235333
-0.15001131149015157
-0.05867958674879048
-0.051426555432531385
-0.05265346134480797
-0.07587680476480507
-0.11235799455873383
-0.061513184040010924
-0.11946686311506899
-0.14290253936356662
-0.11380115930981699
-0.09079558273342381
-0.12762511890572537
-0.15735557018979407
-0.15404058024509254
-0.14182019578918093
-0.16027585352674867
-0.19109364618323377
-0.15122353930866583
-0.12404706144106209
-0.11985230746794051
-0.13062786237547397
-0.15632508833143227
-0.14912139270355357
-0.10317568835334878
-0.055887260535852856
-0.07413098614408575
-0.10471462565116663
-0.1409625144262886
-0.08369486633909795
-0.03016650563345502
-0.0510491876182939
-0.10686215947260023
-0.1275273199640063
-0.08383875308638475
-0.05566223423894112
-0.003326877578821219
-0.012322103751926383
-0.031796053309277816
0.04749080543660522
0.1224622651003503
0.07684554382415829
0.0218480175851613
-0.043174248037816054
-0.11224212418010115
-0.11302622788985484
-0.04181539242058868
-0.07699332488510968
-0.06941549914483688
-0.02596944075536234
0.05727235437642331
0.07996693206171071
-0.025319296828154148
-0.16698574052460113
-0.1675238755724997
-0.1375960222283803
-0.17375008474478681
-0.26837893700941073
-0.26795776704796315
-0.21549373934615018
-0.14330689877577069
-0.12634826386273562
-0.08748254636084316
-0.09986130101688563
-0.0029048442736766544
-0.07336616777216276
-0.19871465802144095
-0.24726520748405934
-0.16986563557162615
-0.1633550383120367
-0.1708102460329974
-0.22808609857507117
-0.26897350723799773
-0.1413301283452745
-0.0039851958697812995
0.05511866880394145
0.023607854009493723
0.005200767217912627
-0.10308883022043691
-0.052839308781471694
-0.08685795978420907
-0.049432942914657274
-0.05610593872007241
-0.16540160267601722
-0.2139952842482934
-0.19895315707564049
-0.14719361234106054
-0.1070143064358533
-0.028066590076849085
-0.026920828354730475
0.02770877136915012
0.03417907930593747
-0.02875705088569515
-0.060151222124204595
-0.09571519222327135
-0.09586468743310661
-0.16402431799024542
-0.2005020269912603
-0.18495404984427424
-0.07307442559625754
-0.020302467518171857
-0.14555627481415895
-0.19391050813589372
-0.20851412838108574
-0.22387544376366994
-0.1623607233041082
-0.1336740255034618
-0.1856418203425407
-0.2359477490420302
-0.24828123955121734
-0.2105167491495734
-0.09150483520144304
-0.003398905710588873
-0.03809477072744072
-0.12343656682236115
-0.18334948422433262
-0.13149759061763722
-0.012064733658960436
0.1259878140058877
0.1153330311721946
0.09847464855538302
0.12863151877049211
0.0795250299602338
0.08093960542866352
0.2035403017076045
0.16692270069148107
0.03733538909510148
-0.06300542574853762
-0.08570644795113325
0.05884077219916427
0.06922128735703403
-0.0135767298171946
-0.10602962860066989
-0.1843560729203313
-0.19369442726754493
-0.1373096049140099
-0.13865449170300748
-0.15713361013471971
-0.11698783742438393
-0.031057644152720304
0.004397501919486124
-0.007221509714309682
-0.009300255414457254
-0.04928221761205677
-0.13366027860318763
-0.10798378701273159
-0.02758559194083937
-0.03929753229195018
-0.1561725136903584
-0.1911565481743815
-0.1456753804640247
-0.05973791262274766
0.026765796036926942
0.04284362977873479
-0.013516635289221535
-0.12563965848048564
-0.15503748807969076
-0.09875372754377726
0.019856284946939806
-0.00644889723947456
-0.1131463507970433
-0.11783257504601896
-0.082141776514982
-0.07837785618562929
-0.07141653511016494
-0.049140532103340906
-0.06876467837210809
0.01016680295431227
-0.0025438531737986825
-0.009261546064624038
-0.014447910006295972
-0.0015840096326872888
-0.05150414483355509
-0.08303458746432002
-0.04271558006289844
0.03369802179446474
0.043854860728411604
-0.0579424449952331
-0.11036412347684593
-0.020036611575644347
0.029838532768381665
-0.02287378871649559
-0.006441949579397033
0.03284248075245144
0.0723351428045711
0.05674175443585805
0.052947048253782825
0.08187619277701863
0.020019987293039776
-0.02307408343592221
-0.05948378600125359
-0.05126749621494908
0.011131513534085924
0.12120451194250248
0.2702727426735528
0.26805299792428566
0.11784650726980087
-0.20552284638462107
-0.36114026184745573
-0.3687673101036665
-0.4958783070015751
-0.6149757691755242
-0.6826317593361799
-0.6356714991811403
-0.396131769110735
-0.25403494325940984
-0.16474986102299796
-0.2198615265567339
-0.23254530835319787
-0.23984362900834238
-0.13463052214464116
-0.025246881168738522
0.03084842355906714
0.05078066161833106
0.02155096398202727
-0.0027228204895175523
0.004339392284115673
0.17725868917364676
0.178186722798085
-0.01745069655115844
0.02865895400692392
0.07052635190568018
0.042473510088605115
0.03986090753848781
0.06580220110689816
-0.05309197050054215
-0.10160791954812798
-0.1577988968810219
-0.05322736923402502
0.047414794289700024
0.12748339547825266
0.15672272667288467
0.15590116800656334
0.09177415248233545
-0.005550497947422683
0.03471891218144274
0.10240523276200375
0.10797392503118786
0.0765435839348611
0.0552100449658796
0.05834555253143832
0.11838639768651418
0.17068252746572443
0.19527088678625726
0.12116058436069055
0.10342058951414934
0.04516891889082453
0.09623860373369175
0.10774309968540735
0.15663434822616884
0.06295227037861527
-0.025678371914750697
0.002998138486280222
0.09769297974939137
0.12946181869848167
0.07770326825107149
0.11592625714707494
0.05761474867145139
0.04007013336952636
0.014662922657504962
-0.0754127170317993
0.016298444360375197
0.08495635528794732
-0.031056805824450695
-0.07841688702663785
-0.06309379848072003
-0.02527460821771771
0.04373059757132047
0.08059586939956531
0.08313711139046469
0.1466996694907214
0.0759162597779297
0.1465210325712657
0.2834287662043302
0.41729820531885
0.5296536525659262
0.623304777284853
0.5999132443064951
0.5369599674227324
0.4144174998067237
0.08794115821214243
-0.20571625968315232
-0.3197464000972069
-0.22181167484295822
-0.164791605560015
-0.2558799353666743
-0.258957540419399
-0.23375934438029683
-0.14274175025045388
-0.06497960034945591
-0.13316494001137863
-0.20349433483635776
-0.19775156289403872
-0.23450759344437222
-0.1903714328338939
-0.07595052876863617
-0.023989801651212173
0.05556641701905907
0.2015661308736807
0.40881383725303955
0.6383727704888938
0.747879385201438
0.753782342450446
0.7316784821952852
0.6058277549292431
0.49522822789842635
0.4186135085138605
0.2195459751067929
-0.10082001983248129
-0.3374889810027283
-0.34029702499462555
-0.28266449015283057
-0.2943097133953725
-0.22694087131605079
-0.15744179980565143
-0.2614834980029941
-0.3423502512075204
-0.1649427227883175
-0.026926454696923674
-0.012675601664238756
-0.08599337407433216
-0.08456131511869014
-0.04911804729931746
-0.008069350451593627
-0.04114188917725059
-0.0675118454289082
0.01613302398262817
0.030979251985480905
-0.038912837264280076
0.03669488929052844
0.16055317891177828
0.15383763328722982
0.2317891176736464
0.14216934404360976
0.06256960068110795
0.016947446825445002
-0.02465608539924058
0.004158361783558773
0.06918359467314739
0.07154293867624872
-0.079116499789596
-0.2314231053905082
-0.23887883044956104
-0.3589613347721975
-0.37232082455257554
-0.2920772967430042
-0.21249850489026323
-0.11274300899812739
0.0739779796651665
0.013733474683894395
0.013988048478614283
0.019023658760623452
0.024719581390951248
0.0612299500267873
0.11173740123263598
0.06211057255805863
0.021575199528689304
0.05075647362029562
0.02323211624453797
0.011133880323675405
0.12263396899705431
0.034894469224660524
0.0053297845515029784
0.06958626724796413
-0.00936443188212488
-0.14951964409235163
-0.147818782174315
-0.12035035959413466
0.012959308634078237
0.007453542702892557
-0.13314391551054472
-0.18871131720657763
-0.1637808367309666
-0.08293912782228638
0.01427892411073517
0.03268781339346011
0.023383645171371814
-0.013878391184111716
-0.09924996373684525
-0.028906288383032663
0.0714766587887341
0.004058605150865868
-0.040952879255343744
-0.11591891834163776
-0.16056729570874373
-0.1555376980415914
-0.10849613557752757
-0.10269948764237447
-0.22669847167612123
-0.2609673056534135
-0.24312867021530557
-0.2650810780272028
-0.08224302861572233
-0.0005233373024657595
0.04117752073358616
-0.003743203783585447
-0.028507545862021366
-0.11773922013403548
-0.22731117689473546
-0.25826282388134936
-0.20444958279746994
-0.19682739697826512
-0.17992551872781964
-0.14882633719091354
-0.11168032132966074
-0.06613407883694114
-0.007468712179008324
-0.0066018791833857005
0.03461033770041555
0.029750473166861066
0.03162913537604432
-0.009243696602223656
0.08152077111497007
0.12721557328630778
0.08874324446342957
0.06101214571384428
0.07002510102256787
0.018867139748492856
0.09474412179044461
0.16512002890175448
0.08727231791905288
-0.0003296276404070042
-0.04372453898583295
0.002575324487780417
0.03457981794877728
0.05634544623433324
0.015446108166755401
-0.09123198034963642
-0.08333667396038358
-0.07622031628436199
-0.10539495236448837
-0.11308735949264798
-0.13294206908577832
-0.12121168598509391
-0.06158594900949155
0.0406192922227063
0.1851558791578455
0.09297703520957279
-0.07070043264363107
-0.09801044386184404
-0.0692486284160645
0.05364638356209628
-0.0015675241237740334
-0.10621586253381743
-0.13933846065075056
-0.05159042679738801
-0.0419975507751445
-0.05302049381539725
-0.058238134250584994
-0.06270066688629794
-0.017405332047298994
0.04710218630346391
0.020775266220853128
-0.021138191818239838
-0.06476684495269078
-0.07363405693224225
-0.07647407932458289
-0.014733663793572549
-0.026203896479128103
0.09346965289585747
0.08867050594006678
0.0051270456658562
-0.05208232223295295
-0.044299610880810525
0.08991164361337434
0.17136497895375868
-0.05454504161662721
-0.08832786086394008
0.01533989402059719
0.14515903309476932
0.15278571532697333
0.2424767361344583
0.42012717442810965
0.5510778895412719
0.6333416298055426
0.6975372903778316
0.8803131480333195
0.9188244354270099
0.7477526631062261
0.3830640130962517
0.022296872215833097
-0.2846110845664601
-0.3352587651781711
-0.26694512435082096
-0.3331482838861175
-0.36560708623252647
-0.2508511510419895
-0.284347550950504
-0.2585125786207366
-0.25300932660507647
-0.15424660601732398
-0.03869351282976452
-0.055179701036762285
-0.20267957091396382
-0.23284628095258908
-0.25868015409177636
-0.04692957350754634
-0.00028771790487369664
-0.22886305576557153
-0.3803889117396437
-0.29891682472741155
-0.23918274714745702
-0.11359669391555383
-0.008162588337664034
0.11206784809858088
-0.02049432927947581
-0.11734969643641086
-0.19243233908929736
-0.2588401810541465
-0.22317915973318997
-0.12571678285103982
-0.036200344311949434
-0.051604020699336006
-0.06142226076429064
-0.13023732356711604
-0.05009472262959952
0.08478572617647145
0.12037321090061881
0.12604889824606547
0.07385957462581638
0.027645211593340324
0.03996721363525102
-0.10128511108426463
-0.049943859170969274
-0.18864820866742205
-0.2528339194296899
-0.14410724185825408
-0.15502786403923496
-0.016292239349765314
0.02095702528139176
-0.06012941507869854
-0.09842712366189364
-0.08723974590883538
-0.13181564534463464
-0.10583239450496373
-0.13521936265562307
-0.13814579219443207
-0.09746378382373583
0.018490676908823618
0.05024728552435237
-0.02513886124978837
-0.0005390553330036907
0.03418032027826434
0.04647372689673074
0.016602862649980926
0.07417563787059106
0.1791603595385003
0.21763023664337888
0.1932744808083322
0.19235808590317915
0.21032859266485038
0.1880579351235525
0.1985767807259493
0.19995920959720376
0.1399414602127762
0.07369178498376708
0.015620910826884327
-0.026688339780422246
0.018615879285782067
0.056148233001991676
0.07214052834380713
0.07458376372062381
0.1041374160335598
0.14375502088851885
0.14208480151696204
0.08849855210005159
0.08807146257733856
0.15047353818436698
0.2093206422300403
0.06336822745762119
0.0016276104966024135
0.11481627199398214
0.21679350672324676
0.17900535918388993
8.082832505702797e-05
-0.11473850694588528
-0.1374740250336315
-0.16940941496423334
-0.1475112531988113
-0.14190395864620997
-0.12200905837192044
-0.07390541589434729
-0.1467266386956217
-0.1851188671920873
-0.19828291173020152
-0.22505152935191197
-0.1935535597564983
-0.1704383787366559
-0.19550559782050086
-0.16239406071503504
-0.13148987124778166
-0.24533313360063114
-0.14154922146822568
0.07199266883715927
0.1674380932543643
0.20938710001664548
0.14564419445202145
0.1254589768317944
0.21069878334004044
0.2358657918749325
0.09617943064113238
-0.05165722811131386
-0.08692404028886136
-0.02853289976886786
-0.020242832282959616
-0.0727361941784283
-0.12766084932625021
-0.08523071420998246
-0.08110640759499171
0.06265011230806022
0.07671232860095767
-0.006080421218994159
-0.0772986690934565
-0.06001179010527152
0.03895492268340517
0.15658282117300024
0.12871183204289932
-0.016054044933627776
-0.07752696117226254
0.05189269849304812
0.09467340190386164
0.06144367028678288
-0.012386091493635454
0.056357855630766646
0.14580263356363274
0.18408332899865512
0.17319436626843615
0.13429613486784578
0.14376350580362307
0.15695033668379565
0.12161455075538985
0.028857659338711983
-0.07421191749716033
-0.003547608941629421
0.04231186852727711
0.08597108145665308
0.07978391637565793
0.1382865401584406
0.04095976784580693
-0.03751872303655136
-0.14744276447953047
-0.09790846891611216
-0.015613687162764456
-0.13792702462970508
-0.3122037604245511
-0.18349402669511206
0.010827013133807517
-0.018816261879140594
-0.09693367134042319
-0.1965210057693102
-0.15416712302650515
-0.1739547116522451
-0.22785234787874886
-0.17037353563505175
-0.13923591156134174
-0.14589449709776514
-0.1444359608606116
-0.19245624504036776
-0.028793883286878652
0.04725790231111149
-0.05881686749480319
-0.04053869540868238
-0.009041208428962277
0.0722505393699609
0.10574600984341145
0.07981620947950863
0.17968132716201102
0.30397284368986854
0.30656385724843194
0.3072880452315445
0.3133017499410906
0.2386905200944709
0.2684799446026811
0.26839531819211326
0.13408695289546746
0.0006030083271257869
-0.09083664344449094
-0.18842326733837544
-0.20849881729656816
-0.11901300310903878
-0.019018803797707817
-0.0741424956249368
-0.04560247530257355
-0.05691355329658998
-0.08131481358293269
-0.11929543417479543
-0.16120650401952008
-0.18088070092306352
-0.09942374173829427
-0.08643949743167323
-0.21893112487251923
-0.2855970793861183
-0.3064873941401936
-0.2443723482457537
-0.22521215841277298
-0.24451231519459454
-0.26792667199671566
-0.23819078242860497
-0.14486046505858924
-0.08814746646952909
-0.07911461193083671
-0.07693186303118317
-0.032574947875637306
-0.014350431392992774
-0.006155123550568131
-0.01817610841038142
-0.01620863137436708
0.03938129095641271
0.08335629738979222
0.04280632762822423
0.050766465847220776
0.061884440261625095
0.06259118381536233
0.06707345127442807
0.028679551038307494
0.008327995856227788
0.02259047594645147
-0.04976841235831919
-0.04980458286489098
-0.052124505831487866
-0.1689289889554536
-0.11489719814848576
-0.001526748455075111
0.0638026493962044
0.1493707945718441
0.015576263819820801
-0.07654669576425777
-0.13043955960875764
-0.05952614125988362
0.3521538914662538
0.33873922252430444
0.006508742247071764
-0.044048862613790485
0.09077352221271873
0.1865711671620423
0.2362094967798467
0.19693543540433422
0.2776160992079293
0.47383421255604496
0.5063157701272939
0.4806584167358595
0.45527528440483556
0.47606720741611086
0.40753552391508896
0.23740182536079196
0.10557795694687566
0.05198240398557499
0.04469577475454865
0.07577827021231112
0.0810679309779822
0.074036118753745
0.03684533495998482
-0.09083587766340706
-0.1808953772110704
-0.26789878332413947
-0.31027306498459983
-0.25105315610000695
-0.07092717100453882
-0.04157235074454163
-0.08754516610102003
-0.13845929974562032
-0.060443594136107975
0.001342031537047178
0.02376564994168956
0.047811997135232764
0.06141279645838524
0.17085957606337987
0.3507267878842114
0.3930560419231781
0.3045533093846333
0.372644001639582
0.4125161114419551
0.28536010804305856
0.1827317548252677
0.1941667768356654
0.08199521160676665
0.08960059754992844
0.14355130234028646
0.10963454575103238
0.06069398250676905
0.008500263861299567
-0.04046915759393532
0.06366448777199052
0.13595937320716267
0.10590886293047874
-0.03876822393131962
-0.06411943208411816
-0.04764182665979136
0.13977443414155344
0.21361039354626027
0.2047757682814902
0.15455880737836708
0.14382466191670196
0.15541720544467214
0.09799783107441362
0.04030918247298368
0.05449625202156802
-0.00996289404408135
-0.007044550584359488
0.06917207530565761
0.20391059287738972
0.16834064458036585
0.07892264504776364
0.04631648688245213
0.036105658879324265
-0.024714833584276896
-0.098169196439441
-0.16184563595313362
-0.18006024484849248
-0.24166315898452662
-0.187781395367547
-0.1960268176529425
-0.23643212315584006
-0.2347027963293834
-0.16609188816920262
-0.14995275537941244
-0.04851062320640376
-0.12230058313803105
-0.12162127409433177
-0.09736273116390787
-0.03416695116202097
0.035889925488491126
0.0907014687150497
0.0919139109182574
0.14146987715494425
0.08044199081126238
0.004720943570393599
-0.011520767699743417
-0.007352116774757
0.04609742088899749
-0.11991233324337403
-0.23365885309470502
-0.2550154974175395
-0.2626420761967867
-0.30244499800342706
-0.3745374701347671
-0.40367377569326557
-0.4123934609131571
-0.39744543915990416
-0.37132662843376596
-0.3350051801988648
-0.2569691010629618
-0.17306420736215244
-0.1635834742472868
-0.20540244071088543
-0.1648371078748907
-0.14733315659466273
-0.15743707877054353
-0.14364187162207148
-0.24538803319744285
-0.1589919988731367
-0.039446890699891435
0.12858652977532736
0.12865221652735606
0.038025477098922844
-0.01984912458851812
0.03820915256780144
0.035255611142951865
0.07328007773600959
0.0787419145418114
0.02254416166128037
0.0019906865131726903
-0.022526071577448847
-0.08541598778953569
0.07604868621509331
0.15578163258452882
0.022226822651289613
-0.04896736802038615
-0.11432603933132401
-0.1796517387175689
-0.21154374054455127
-0.21680870574062394
-0.20952674559714107
-0.1335799307530631
-0.12876285231980586
-0.2240101814774866
-0.179697656161944
-0.14582315660670436
-0.1606210202795108
-0.12084146803492934
-0.11290542753624616
-0.09841095049431348
-0.10848918208106129
-0.07908983371220268
-0.07465013695369649
-0.013871441152844444
-0.008290806947134577
-0.0228952216089795
-0.03551986981712951
-0.047308516454288574
0.03649001178282818
0.010201726991749704
0.01309590044847192
-0.03196954771815563
-0.04077391611321868
-0.04630452871390245
0.021313004476237574
0.08112215690735625
0.1165209738485816
-0.04377096008351394
-0.03689171088284712
0.008709612103737996
0.040989142359687036
0.04897179184334262
-0.004274013939960103
-0.011244808302728532
0.02509633171993847
0.038530758195854053
0.0479322261968278
0.02992510037693663
0.03688389905330769
0.10077438044308923
0.10188527843710951
0.01766455045853893
-0.045254985766723266
-0.025126615667371843
0.022844527050698393
0.08160323461265984
0.10677092326693352
0.06831660873233603
-0.12147820799109499
-0.09965944012440775
0.050932256104336826
0.21510826076165868
0.3474621449456119
0.3215997572856546
0.272769662590183
0.2850651082162087
0.23758838984947883
0.039483049913412255
-0.15430954549522236
-0.2701617782558273
-0.27695084588898555
-0.2559419243570257
-0.2341388349560426
-0.22619705641051657
-0.1829649544067847
-0.13796385722641474
-0.13495720849535453
-0.18652838944970684
-0.14428657957831903
-0.153465173204924
-0.15982670008306454
-0.16792474113902145
-0.05226215190502159
0.04928663916166398
0.07785983461310575
0.12767011027624103
0.09384534096727426
0.14264821335147715
0.14183899245970236
0.2073909879078668
0.29128755693432407
0.18730259213785838
0.10321575075625466
0.005970642843081131
0.13938745436984812
0.2835644269194122
0.26832501627809124
0.23213856102154978
0.2825940390486929
0.4073105002930383
0.4537669230840021
0.4713506046335545
0.4582805197408053
0.3369743553871217
0.19067975444529284
0.054940672887447306
-0.024950783142184532
-0.11896230262591134
-0.16684380587505698
-0.2922092324215301
-0.31187848222719294
-0.1913788679832361
-0.038091244697687876
-0.040859492083587856
-0.0725509996503006
-0.12457190842669538
-0.1771411742575001
-0.1120799827590212
0.041794392773750966
0.03889917049470759
-0.07483091174936075
-0.16241609179358601
-0.16086046192689119
-0.13243928936181393
-0.01005797226870142
0.00458547896066519
-0.12186904826712486
-0.20767349729838358
-0.18214111712031106
-0.22337430239991907
-0.2580859376864692
-0.2509883319337574
-0.24940050595250995
-0.2503358130007236
-0.20084287166675957
-0.13931229258095257
-0.06351116977940824
0.05801416218821098
0.3075205471692477
0.47818165517771005
0.41669139971539015
0.33232379124908595
0.3499735506058892
0.2855748416459163
0.19909144504641496
0.20500032519898287
0.16809611907975178
0.03419869980739117
-0.04192876397293883
-0.057432942028053456
-0.051898230802738976
-0.2515996523566378
-0.4276418486687503
-0.49212752952519945
-0.7345520457360848
-0.47576045451432325
-0.40686797104993255
-0.2500476282992844
-0.21854758450045275
-0.13460124129789597
-0.10261867529559754
-0.16519043305105963
-0.13232332422831689
-0.039327138618977645
-0.014372677578873908
0.01240359198740204
-0.03864039446255327
-0.1433210337812985
-0.1118050800566857
-0.056698503583175616
-0.011790401672085324
0.020232893523222023
-0.05312129788755526
-0.11590645431464486
-0.04650452538575034
0.03398995838189067
0.09191247510604475
0.2628362166677371
0.38199374546904596
0.30404235147712577
0.3029103575684058
0.3812001693115561
0.38247495973709555
0.29475936642031086
0.1094199277253129
0.05439848878745701
-0.08479799023364021
-0.04900910815103621
0.06442501978593113
0.02425903713414923
-0.09632817793552506
-0.047519004166346135
-0.12622514450252587
-0.20533202608355072
-0.32621413028818
-0.3811716918454087
-0.37376513631582403
-0.24650362964157457
-0.18439927825016122
-0.07799854127118999
-0.05972371681691371
-0.037808990221968125
-0.010159377238332878
0.024230419280348692
0.01001201451830687
0.04720294326497004
0.06270815215225073
0.09429277757925092
0.04632652739786916
0.08106530045356525
0.16671760136228553
0.04625255132158834
0.0707760266331221
0.17088561921621848
0.18585952197872707
0.2711123802518914
0.23996173181283048
0.16692813634794812
0.07994522597838294
-0.03991609588468137
0.014382682285921322
0.050217824304103154
0.1834646385724823
0.33185409076189887
0.33796024914022404
0.18418974306136682
0.21644582938095902
0.1952232719406537
0.0488438012027006
-0.0749215860082449
-0.11843481994360666
-0.12156076729444942
-0.034017394196921784
0.12380052767677815
0.013481909555089988
0.015986415754591143
-0.03476529694000202
-0.026261542380217384
-0.04627248323905181
-0.2020305993632383
-0.22909742347046946
-0.10607699195620968
0.1016137056916846
0.08437122963606902
0.005185767253338303
0.01915540875092181
0.09701312310731207
0.07834051668038203
0.05151193784428826
0.10888616600540357
0.05734628452560553
-0.09943403079960528
-0.1869295888411745
-0.16246393007976978
0.010790935531959978
0.04953663924420321
0.03793831943883376
-0.04106046116691531
-0.13054145614464652
-0.11521496397247932
-0.10911557101159752
-0.03477955641149988
-0.04294133495337055
-0.07526943333711686
-0.1341066237779227
-0.09931059268371634
-0.05119198970211092
0.02398555587592416
0.02671272415395831
0.03431436137538371
0.08972648538480493
0.17443655583426892
0.21593517831936057
0.1937313198774293
0.1785516516820005
0.171212633139057
0.12903474776063095
0.12205228885549535
0.10341288982156716
-0.021569798198210033
-0.13187340574441994
-0.33965647063859494
-0.4514228631744427
-0.29845005334676533
-0.23991943211553068
-0.2248829841327306
-0.25162439577739926
-0.2280203845677926
-0.21617895755971533
-0.12488777745224763
-0.10660765282621708
-0.11019444701409936
-0.06555196233304506
-0.110388704628119
-0.09574471625188963
-0.050062530739788724
0.0325580135065921
0.03562868086569071
-0.004067580118219172
-0.10520340042104248
-0.10323291498756748
-0.021258027213383823
0.08394729532793732
0.12548010363455692
0.17039739577712773
0.08622756786033695
-0.051916731387153026
0.015796738390945197
0.15337214806880328
0.08142123920115274
-0.02583497690571196
-0.13138876316058468
-0.08574812735646103
-0.11233736353026424
-0.13555592476588696
-0.1233471060885658
-0.17821721826044234
-0.09368727201655658
0.05127681454069888
-0.0024269204940100125
-0.06744378628772416
-0.0738333123543195
-0.01439919541597201
0.02398724023758239
0.11840884744589825
0.00878594543712602
-0.029619391926050787
0.06805041675166223
0.060046718608614755
0.11797737000805081
0.0728998085560486
0.007728088452776505
0.019380768676935667
0.11688137639661839
0.04642729144666535
-0.08661940484053421
-0.07105938949443469
0.001975529860248404
0.03392301347159443
0.034784705497832746
-0.0625494636474846
-0.09784847612741565
-0.08746901813380242
-0.17390191866845747
-0.2006363107332968
-0.30895420980932997
-0.39510445289686125
-0.2565270330088629
-0.31151468031538165
-0.3090265789551301
-0.19984975814764516
-0.0823175794969882
-0.07801156581327282
-0.11926864159008
-0.15922103886251787
-0.11577804780881434
0.06056666534425576
0.13256634148515192
0.0996211257571851
0.10156217114542421
0.09344253195294888
0.15913388537450657
0.12470729953420878
-0.0517860325306545
-0.17016962600854957
-0.07000841990369544
0.11164212392177886
0.2157979114025299
0.21525591919682918
0.16713162087334388
0.07425509249107176
-0.11509869875788392
-0.2960598391742144
-0.4112559992462308
-0.4634397427144685
-0.39418902779675924
-0.25248338985184854
-0.1336538220034751
-0.06891271115560293
-0.1224074637096654
-0.0827845439574089
-0.08824610586243557
-0.06544366825296027
-0.05566025790664989
-0.10369054581629475
-0.14659437900832128
-0.14718501879180296
-0.14537984067571436
-0.07929446752826194
-0.010245643939691906
0.031804804895629535
-0.04464541148106005
-0.06478375626807664
-0.08442416721180312
-0.03471239472160503
0.026405591689644736
0.04932900180826677
0.009313999552344743
0.026728371518861205
0.1269890280142401
0.29323881401038
0.31963727204538506
0.17307095410634266
0.21082277154720197
0.3001931509256346
0.1753571024520384
0.2148912647333533
0.14745849313403475
0.0031008196652355102
-0.1774506400105289
-0.22789642039725017
-0.11529563833912715
-0.11535260270005188
-0.14784067272101148
-0.1551308041587905
-0.1584032292280823
-0.07973264881502992
0.004765792924767108
0.06900270851557215
0.02030522132296403
0.10447279126228076
0.13747729610100717
0.17186927561247595
0.20699258926267883
0.19391972790549528
0.035850225364046695
-0.07686915470064504
-0.2461448485893347
-0.2821537255257752
-0.2520094733669589
-0.09151918196135433
0.04478520271341291
-0.0966255939362014
-0.3776039093034844
-0.4951123898732168
-0.3465064640969382
-0.3041110457943559
-0.3653719437259477
-0.4341589038203244
-0.4804665221706099
-0.42631997766930285
-0.25794509966377976
-0.10432330568668943
-0.05223744865457794
0.03056446172155
0.06644203532493446
0.011017041575356781
-0.07708377950503564
-0.07386270006023593
-0.04536830457734392
-0.15304285135614115
-0.2697244848298713
-0.22771048639382885
-0.19627932306831575
-0.10899621716568997
0.017972213845989127
0.07858740599433545
0.0658206208660217
0.011411347662155596
0.005953369959808774
0.01484098885446461
0.03048422453379565
0.009578573328132278
-0.007488382970046503
-0.02272201687941497
-0.03722107271770589
-0.08473839661824623
-0.057149142061904246
-0.03700062942530724
0.0019485066497737513
-0.04939582873864312
-0.1004912018705928
-0.122810428919913
-0.10936618544607324
-0.1330904387534435
-0.07946901506083803
-0.056966915091943626
-0.039992277094353296
0.04292727978313185
0.18853501532459194
0.34214642281412566
0.37792048451258453
0.4068736790575195
0.3604598736140082
0.345488693395515
0.32310635252226616
0.3133009885469611
0.1599759746041024
0.007327336843754417
-0.053402259510825445
-0.02874121768049287
-0.03297776929380408
0.06160395647635081
0.020098027109302974
-0.10965002977126415
-0.1423319382089845
0.02262212114409179
0.07777101596691782
0.03690154627687109
-0.013387683002980863
0.013510380563088842
-0.02220524497838361
-0.04558138733130425
-0.11301611505385148
0.0604029295026447
0.1314031245790957
0.05786921933972672
0.09613129778842622
0.13877307188496324
0.1615233276112532
0.10672474942608456
0.053437721797512716
0.07391028347020967
0.14232293030933912
0.18863225029189226
0.16451466274459944
0.1483383219603246
0.21228068578347126
0.15596475715061042
0.13819074827870548
0.06178850251970758
-0.0038359709509847573
-0.12385199988611079
-0.0828515626939813
-0.018494815933374736
0.049375758020740096
-0.009331337824165425
-0.092612766424177
-0.17719906053672307
-0.22709308801092457
-0.14473561896017678
-0.0670762477393646
-0.07807838365531494
-0.12777044011326957
-0.1255503196672505
-0.17456229002246115
-0.1898152919756575
-0.13648943175269812
-0.15029417874680928
-0.17667639657461187
-0.23633160513829832
-0.21919340003785703
-0.20205555618982174
-0.12994820153608141
-0.06383621532334804
-0.03211453945989595
-0.004380036579883756
0.03672544253292685
0.022164469111406376
-0.023461399714895914
-0.05099457192962098
-0.03459455042529874
-0.07496227796764737
-0.06604052583188286
-0.09633745549891781
-0.05978772121390352
0.02927435278267243
0.10155294280224741
0.05557254764206218
-0.008050167844587064
-0.03064555052118878
0.05409099351311286
0.09949435178917454
0.21287591976839704
0.11840294534212259
0.01646874775511059
-0.014345725531478282
0.060096513424064524
0.22986833447656085
0.06812199354202209
-0.051177839953408744
-0.07165409158768121
-0.0465932255871111
0.0569083052955498
0.07642632508235114
-0.09224444132521732
-0.32754713261982826
-0.36503651131132697
-0.3677685457789821
-0.3831307744774817
-0.41896541129679865
-0.38522683329092866
-0.33087877401636634
-0.22925923152496144
-0.00457577473071067
0.0958819943629704
0.07195953064984567
0.05976012119592855
0.08320500727714852
0.06373470309148344
0.13335231653602864
0.22669944192253338
0.26248485374533503
0.24292028163592844
0.28301759945171445
0.30988031805265004
0.3107841210555835
0.33560694872042984
0.33042319824070066
0.3210903214184755
0.21478777736076893
0.21181156829967623
0.22966996084850796
0.3006125489691228
0.4129306614150958
0.392443048035404
0.19367450771348538
0.059922749187312
-0.04003961749185009
0.044991764229991515
0.1410384858242817
0.177908691545535
0.10703724113087532
0.06007264563132719
0.15587983985841125
0.2389963178410579
0.2109203320889217
0.21508366840150428
0.1529659358724449
0.11452003177575731
0.0886823767224171
0.07852639778982166
0.11099621151281013
0.14005663038363086
0.07463055124175044
-0.021950900637232235
-0.05508051250145696
-0.013408550784253292
0.023538392834695165
-0.05728029292206305
-0.1356656575953337
-0.1646227106019617
-0.10282888326484593
-0.015749553673675143
0.0029441626596661274
0.00047349395288298624
-0.10794843382447472
-0.1692023396270087
-0.10613654965843256
0.023867627465709584
0.1354713643331839
0.10665382522305758
0.10572018771500045
0.0544610860208668
0.011381994215310831
0.02567019110199431
0.15166282815591237
0.07617606813190436
0.07709612803655874
0.04195801965936033
0.03795937793989154
0.14949969072290226
0.22442044523457153
0.2618395365161794
0.2046624507130119
0.06501129467097766
0.030765981922120877
0.1771551961516289
0.22458590215833985
0.07316365052428186
0.030382413623635723
0.04196938348257925
0.008749259878989224
0.07498778019120145
0.13281786668189755
0.2662917827025344
0.3554948610544342
0.3101880686688401
0.3355987070585078
0.10389255658076202
-0.13756215109463138
-0.23248543831786062
-0.23975351844871906
-0.1718941729384328
-0.01624722193027467
-0.02547803147852573
-0.11552815650315496
-0.1685369560618128
-0.2099222289545813
-0.23868424429589835
-0.20884761195469193
-0.17852886618047295
-0.15787081968698224
-0.15085381691653976
-0.20005733635036538
-0.1543803068002319
-0.08628703887318517
-0.03740549934871368
-0.08161148835037269
-0.002889320038286708
-0.012316463444759285
-0.06465800622538911
-0.11274814618766012
-0.09864024485400541
-0.06057874330954882
0.01081676295611049
0.0481501640971832
-0.05378129523908881
-0.1032479153630238
-0.055337250691614326
0.02888738033239857
0.04133288895608833
-0.05732438541467745
-0.08580958468967392
-0.07754723400742813
-0.041274430342918556
-0.04563789934104456
-0.04038154623160767
-0.08556645063255322
-0.07396027948235034
-0.018888390097130198
-0.004542915200087233
-0.053203962478564126
-0.09502231470483691
-0.13801825728429384
-0.1603699209639357
-0.14615131235835485
-0.14884585575897838
-0.16322303920050862
-0.14499260095769867
-0.15187316735122497
-0.1558461497535158
-0.12545048698234706
-0.15443323670464126
-0.13707009912026225
-0.07514774655980028
-0.13562486783482375
-0.18503768639985052
-0.18579743809560878
-0.16518119155250066
-0.08144270002044451
-0.06276154553234438
-0.03483430696407211
-0.0722601651980573
-0.07999677209389705
-0.07841888782681772
-0.06286885900158498
-0.08862011361948807
-0.09710113032557283
-0.05525607802274268
-0.03827763909780925
-0.04677039647002577
-0.1149198273305457
-0.14011261517974777
-0.026083246530782034
0.08880456742462385
0.06290584488487311
-0.03779495562465859
-0.08747127125198223
-0.05395959540367278
0.0353028386815868
0.08319150087948288
0.0035816831612369704
-0.06715706444708519
-0.08312990155302874
-0.04104756740459914
0.0695982919931831
0.1108920687719602
0.03281878859171551
-0.03996948217737678
0.016714161816532846
0.13147598905780744
0.10027619356978762
0.037983010607314294
-0.02371611956595393
-0.04042936319359358
0.023114399682282342
0.01755025011074729
-0.0004023807995509887
-0.024655718484457356
-0.05520272942022306
-0.014128472699850098
-0.0011246296146123075
-0.051425102076383955
-0.08754440529001695
-0.11031306052481266
-0.03105020855289159
0.06974704941317394
0.053222630978959545
-0.012154057830091436
-0.04958105852258457
-0.019382285044205652
0.047367935275126116
0.06847614789788481
-0.005376928355247529
0.005622669505684547
0.045310561916491195
0.13902018481162448
0.12538686889280953
0.08873069537405101
0.13978025598302946
0.19100967525644577
0.09666916360769265
0.07753626653720849
0.04218925621014952
0.02976643091031561
-0.021716414764927472
-0.11230270835215331
-0.1006953237121643
0.05018251927806555
0.03270984546528605
-0.025534747901759886
-0.04572136365673973
-0.06333868528868658
-0.040970600987242145
0.003243545786298929
0.11252241007054503
0.2327581993357232
0.08093140430131435
0.055905080762079284
0.10663985707561213
0.09303735923676248
0.07242581434083206
0.1315692726707396
0.08789650816173555
0.00890559989060391
-0.027747357122225896
-0.009871050459688557
-0.05190606025636768
0.012936738673097081
-0.002015325678104807
0.031294515097518294
0.06398502319428724
0.10484085256825049
0.03887315981628697
-0.06513240103737718
-0.15153679666422742
-0.10193985574400777
-0.14953811113274562
-0.07998970188254495
-0.06301891479612154
-0.09531878046250264
-0.13300367057349888
-0.06859569218617187
0.025482491013616868
0.10737044084412944
0.14050873624026117
0.10042008150700016
0.02273335957841055
0.003970142031809676
-0.06742606291577992
0.005915909967444621
0.008313959431262452
0.02087045363018425
0.022634194898562082
0.0021679397130331957
0.0349022382520483
-0.004240145119524863
0.04595872702576953
0.07649762323626907
0.08317660059364629
2.526912341829779e-05
0.08508721418748033
-0.042420494055218194
0.059767575704541054
0.23647962200757555
0.41719797859501173
0.4241356717504011
0.2812462065475121
0.1333070915563238
0.063944669238161
-0.20850313069649004
-0.4137805533842285
-0.4309584128536633
-0.40568602761596473
-0.5314923047487605
-0.5661733158776268
-0.4992133881050167
-0.41666939796311964
-0.3215387317676365
-0.1229592987240174
-0.012929976572441451
-0.06100764946711021
-0.04468148123312532
0.018935322689673573
0.017262344120787476
-0.045413023965110266
-0.09913468449829205
-0.009081904303686494
-0.009828467924731299
-0.017121255377081035
-0.07163836293274167
-0.035543269626273744
0.02721472191325941
0.021784220896707646
-0.014029581840140193
-0.09926010873830815
-0.15834681317760368
-0.11214414727768529
-0.12711891751327287
-0.013348115703563007
0.08708085987037559
-0.030394370042405278
-0.09666212056438112
-0.058864380944447625
0.012465898791607033
0.11762845659103605
0.06386543523996546
-0.08411568636145694
-0.15221319412741713
-0.0978120429916754
-0.06474803979606508
0.021002149119557556
0.10494017720170368
0.0790228782862537
0.08644297691904032
0.16380289716832092
0.20406470021601236
0.16696375072199532
0.12619903098796775
0.03625097515674994
0.005253381440714577
0.04656135411850293
0.15600279866125788
0.20712002200322777
0.11116258685764868
0.03000630384304248
0.04697805718044312
0.07257723705017091
-0.03677980644926254
-0.1415487316628306
-0.2160292072575173
-0.26819134905487374
-0.13405161389432785
-0.025313045840047045
0.23584118182834318
0.22358416231741174
0.08205431124583157
-0.044493413850204014
0.003211028777355296
0.006036519825605269
-0.05997549902737698
-0.058001694371671186
-0.04988406932768226
0.021273973702629456
-0.03331007362743499
-0.03615576579789892
-0.11284337470535821
-0.22096306559642181
-0.24477969784123688
-0.2156768463436527
-0.1690892023532271
-0.11230187867778768
-0.09614766988708445
-0.23152620867555995
-0.29911154425440106
-0.25756338350523345
-0.1953209186391991
-0.16278477140671677
-0.21847385912848993
-0.28647023278424877
-0.2608655107254798
-0.16071417098169172
-0.08757003378915817
-0.06519643452056387
-0.09202954233309746
-0.09960660177454683
-0.07708853161490845
-0.032443824541099675
-0.053356578563148876
-0.12315578592941688
-0.1267098446993991
-0.07227834302666974
-0.10507465843524932
-0.15795966030495107
-0.07566933267400056
0.005354354651263604
0.055468870264428316
0.014370674556281493
-0.04663561077537487
-0.006957807906915137
0.022436821039330646
-0.12392719742256353
-0.2370804589302269
-0.10980442148105896
0.020187724339216617
0.13217490515909575
0.2264277712948073
0.14805736500992556
0.03453587511250078
0.009037120129708809
0.025064130610951613
-0.097032707910291
-0.19511288633396684
-0.26709224488380756
-0.2546760873776655
-0.14868381489097537
0.014623579698585756
0.007153726511156644
-0.1172952411145709
-0.08395205060794553
-0.1376481218415242
-0.20629884869894566
-0.2051465520763496
-0.17080019247601735
-0.10449473741438414
-0.049735263163170285
-0.029687165405221788
0.005725393500982515
0.16863677756748485
0.23682397480615547
0.0661593295979207
-0.26678314689822125
-0.3308963522797075
-0.17655316527939924
-0.07793421452037858
0.12277569316441872
0.14973288026587445
0.05857173693184892
0.0026326614280131055
0.09259625050874323
0.041585378571420306
0.045840562033639065
-0.03680008698747472
-0.08194466606999917
-0.12220764685236474
-0.24534901819826915
-0.18288223249466018
-0.09055295983082334
-0.06014660182345377
-0.029101912251612294
0.06966320910067392
0.13836963542921987
0.0859017288573638
0.00877733157923588
-0.0530265555585856
0.04722710940996519
0.012997292515171868
-0.06025217108995776
-0.041856053038134625
0.023089220259488452
0.016811718916353136
-0.015717686034014022
-0.06749275415008116
-0.0515200389808458
0.004143428485832934
-0.0997441365436399
-0.19468391638464033
-0.1585626216695255
-0.07168092117891756
0.09266814986197491
0.1293098393023212
-0.0176808617060486
-0.11959173760668318
-0.0920762521059585
0.003423593350562776
0.08743082676537428
0.010670159922752664
-0.008759454403145128
0.02021963193911369
-0.012099525847894532
0.0002769025292109206
0.0786219761829016
0.09210026171573135
0.09721464500843835
-0.04577776242221865
-0.06566120323933422
-0.008095190322085388
0.04101951839282503
0.13877901197738085
0.08657879153373949
-0.037029920927413085
-0.1224221199003457
-0.19206701071648352
-0.10256335068428102
-0.10177163804470157
-0.07520776360760617
-0.05795191452347259
-0.07066057780867807
-0.20817608266999454
-0.223213102243344
-0.18099261285572188
-0.08790878445456407
-0.17804184724079564
-0.2268881396124114
-0.31512491925333297
-0.3586166169478882
-0.3011964044243539
-0.2979546762304146
-0.4116083108683729
-0.3576501473930653
-0.15400254736943414
-0.08265453891927049
0.020858048424099496
-0.06654973955261728
-0.020890532654926575
0.036226666576059885
0.02580185423588495
-0.05382061580636027
-0.09211222253094331
-0.13249275566183327
-0.16571403965066783
-0.1294767073007724
-0.0016081060659228763
-0.0014802668953973752
-0.006678532842491203
0.01667237332481536
0.09593579803128094
0.17667522903013916
0.18311199157445993
0.20071562160574183
0.2511195746234923
0.32635574110188376
0.4424480652960079
0.607293309509569
0.6550401431174271
0.7229366576990768
0.796162438076863
0.6241682175401804
0.35952219405505725
0.07266075489013396
-0.14378345081073823
-0.22327553307479786
-0.09116730391593802
-0.11078267903743053
-0.14331699149417504
-0.22219801100322686
-0.22526571556230635
-0.1763532246504967
-0.12045037767777239
-0.043390333127533154
-0.07373123415749394
-0.05371188321206366
-0.06954085272424482
-0.03378352873954127
-0.009630959531521155
0.0726673049604887
0.12700392251403853
0.02891773930710856
0.09552055731587739
0.11293277162949472
0.08022754439428154
0.08049779927687561
0.17669473860591178
0.06726802764134299
-0.09543483995733959
-0.27064649071909086
-0.3077054090975593
-0.2378574874381657
-0.16485488690625583
-0.14707632148820782
-0.14614080046685296
-0.0972644887978883
-0.08802128509601495
-0.03912580852959978
-0.005586220175233969
0.030755851794575476
0.005238728726236638
0.00982923245445061
-0.0444744381855367
-0.08955807862583309
-0.028345310295319726
-0.05324171956310886
-0.24158431139931125
-0.3045526076481957
-0.22754444804978757
-0.07199654613199988
0.06264980186924207
0.05528278248528115
0.045765828196954905
0.0884993978151411
0.09257665330689036
0.10371039495607658
0.037315873960599655
-0.04978535894376168
-0.1871745967687788
-0.18830620812993637
-0.16357280162728619
-0.06176650954942875
-0.07889573182706044
-0.19341089990962956
-0.1671413072597987
-0.027567163760851277
0.002423145320041842
-0.064827878411029
-0.11092041010332632
-0.09735902726620266
-0.020807763108094013
0.04415193443404772
0.021068977965705976
0.04034649571641352
0.0073733557705364106
-0.00655308540085818
0.014966865963707332
0.0027538471447545593
-0.022210016177276776
-0.024139891442581912
-0.0073659122121655235
-0.002619362824810151
0.0023674810862707313
0.017997514875547155
0.05774790776591306
0.06538915685772179
-0.001212502662065268
-0.06731189569154516
-0.0004181072875359404
0.08230964407042973
0.03010842949010012
-0.03729003180294038
-0.03077352506191408
0.04433603915311912
0.08451710333335063
0.0406990604340689
-0.037031900804982976
-0.007300230251988227
-0.04280625159761353
-0.07921651088838222
-0.12125121128010397
-0.113282248739705
0.015417404019664682
0.07229723390862342
0.06760077780621288
-0.017637633713976142
0.03775800580311868
0.028837936352350962
0.06884251928737506
0.14805967996008448
0.15054525429210364
0.0694008584208452
0.03838961307023747
0.12903161223771753
0.10360356009396299
0.08796540642021955
0.012298195877122609
-0.012584312345740034
-0.08476006199084463
-0.06753629155542101
-0.051105350321447834
-0.005548580748272941
0.0030021223410556797
-0.04912313123162293
-0.023759703958957268
0.02316357567477423
0.07555225710736896
0.03066653622235671
-0.06040762403296748
-0.060742700649489764
-0.027415958414785446
0.03943147878820841
-0.007291276126258128
-0.05765465177802698
-0.015703233474128275
0.05537160941616004
0.04570468846075118
-0.0172223407037492
-0.05406755380900791
-0.08463001105939477
-0.0712767435795652
-0.08856763157075764
-0.12338966242019977
-0.13787363980669534
-0.13513407243037703
-0.07112731399070385
-0.04078196679960938
-0.0789381901704312
-0.13568949576515477
-0.16981915760462354
-0.1564160539655867
-0.0817323393710466
-0.060415439869266785
-0.06413963881210344
-0.06968945366888357
-0.14224800889697475
-0.14772119408482542
-0.08137445247169639
0.045687546787293754
0.011818824022560848
-0.0063165560095048146
-0.058524019624002
-0.05859562133267188
-0.002996015746489805
-0.009871360719732825
0.00581024552664669
0.01000949282231628
0.055864822990148444
-0.011095342059508129
-0.07854184336927639
-0.10175842981794736
-0.10241870798895282
-0.003927260911702618
-0.05597164466550439
-0.12224501445097402
-0.15980591964395158
-0.12224277571938452
-0.1371203907872966
-0.17703746837582063
-0.17088067380813426
-0.10697911689812878
-0.03676857879992851
-0.040929566383419796
-0.014393641792560974
0.08463665394020556
0.1753566079727283
0.1650436789857993
0.14340518821790627
0.060243574892266505
0.003064595116744284
-0.006231169651109036
-0.05023085958262863
-0.07326350802116433
-0.043156766238372835
0.014989629674777571
0.0034710484627473726
-0.06790696335696328
-0.2025201365610526
-0.24376231343844673
-0.2140806940963602
-0.19809996333518964
-0.07929729124006135
-0.016393975575357045
0.04292636590344756
-0.014717813344742758
-0.02434889120815048
0.007735363230734427
-0.03302648296198707
-0.18120976783062348
-0.29703763876130473
-0.1552215990101502
-0.10358192678983325
-0.010621590414955806
0.12168248951906402
0.08453913623729015
0.019122499853663988
-0.017273818387652018
-0.00955450693176052
-0.1652005512784943
-0.18393526749294087
-0.2286375194841177
-0.22059299226792595
-0.18913362849455595
-0.12845039451504056
-0.0910969680612188
-0.11505658032088806
-0.1524014726053159
-0.0935270350886788
-0.0225263200541706
-0.014362464470634093
-0.04871093517614612
-0.17996456541489336
-0.20146390120962032
-0.2834211969410295
-0.2757758720525043
-0.19471620934538292
-0.15764559750031248
-0.20580239045652138
-0.19786055056456087
-0.11886166569489318
-0.04480427232006616
-8.780700442884148e-06
-0.05223790323813812
-0.09429436012579095
-0.1497055576799412
-0.07874119549061914
0.00547412825586524
0.06683858490467703
0.011091385506068585
-0.08287254841989469
-0.1274911055064627
-0.028494027201783734
0.09604110153660711
0.15049757203700634
0.08807927845877725
0.05554517205892717
0.0332389485076065
0.011515046849790805
0.0649130437491128
0.04294551613527359
0.007135806544820045
0.08208542130487967
0.08761865526200299
0.048689760170073926
0.10552450569960159
0.15462410637747503
0.12114112830084622
0.14105888785834142
0.07872436530528182
-0.039324543722820016
-0.10683733580314247
-0.20000137991922656
-0.11495669369203265
-0.12698464769566753
-0.050230497590185774
-0.0781486407583466
-0.3818259137098956
-0.4290431530565023
-0.4542855930083476
-0.45056236767720226
-0.46288017317834595
-0.4444796087119942
-0.4552607912346729
-0.34848389202041347
-0.18740901642671115
-0.11756221485135654
-0.1161357418897051
-0.1548130955983008
-0.0692654499069073
0.007975064449723623
-0.015023291584048352
-0.08425552233606082
-0.15679111514445598
-0.12379082062529989
-0.09807053774835639
0.0011978859586890822
0.0016971596717939574
-0.08643934052825192
-0.1422004152110797
-0.12290424412409015
0.013872871176324686
0.048525972228123826
0.03788175757638068
-0.026172317740713935
-0.0761201150411922
-0.05940000445245691
-0.02215716604324164
-0.038586148429771955
-0.05226080745061601
-0.01364700723189144
-0.003283404180785654
0.04735495072117013
0.06574562724569682
0.07147479561777614
0.05850341747813215
0.0724739408659163
0.09682111766178103
0.05559664770944428
0.06283698128956605
-0.12392758742213983
-0.14378568527048435
-0.21302930998135763
-0.20201835258578743
-0.15307337937942622
-0.22112206390509326
-0.20729570356967086
-0.1700306038058027
0.003089022859587287
0.09756157940169952
0.11998274039855183
0.14470588929766814
0.03957861046912492
0.07084500292634155
0.08475602569236274
0.049895722012826924
-0.005517316133454853
0.07952103149393808
0.11989838946644485
0.1546898200758524
0.20610417072388254
0.17550826335950065
0.1050436785097213
0.12152959686668652
0.1243002557233952
0.1509202868059013
0.16309829716626945
0.23908809370695971
0.19036353264660955
0.18998029842166564
0.22616765062103905
0.28162694252829745
0.2206513702862073
0.07330250350812051
-0.06763428395811738
-0.10843470494026991
-0.13170954375851351
-0.03055053869568569
-0.03168541523565771
-0.12141774199228872
-0.21673072699687956
-0.1257816324342918
-0.036911544154951015
-0.020914490702980126
-0.1022929786242246
-0.271554461607325
-0.27057714493490503
-0.13748008237711873
0.0050406963888007805
0.052646390090853146
-0.060163081454865264
-0.08843719430489116
-0.19998472311319804
-0.21534412646991175
-0.1433556671201076
-0.08525645133313364
-0.2117793752465894
-0.26946432631661954
-0.1439353858931497
-0.012327244120890035
0.037002113784017646
0.03750550714649892
0.02334883946957067
-0.10301508849168983
-0.058435668434889454
0.04236692352438198
0.18320003111791583
0.12276421204817528
0.017714924659371176
-0.05540765678010945
0.021718313893448138
0.1673433220258368
0.13884327418603415
0.09793238071042865
-0.020499168620166153
-0.0574262168924545
-0.009930137423917434
-0.005846425188009957
-0.11130433095909249
-0.24022061212274173
-0.2636714567571175
-0.2689501385845393
-0.21953706151373786
-0.17637577572051943
-0.16081781427278752
-0.2067712527255532
-0.15722511056405764
-0.10576993759596975
-0.1100889991128402
-0.0295831113909919
-0.03979329378155372
-0.010366184610666823
-0.041456969091322904
-0.04418183289738442
0.0411817183873594
0.09699148904947519
0.1762696383260216
0.0014888348602881685
-0.034911897912492496
0.0545694310177825
0.02351802748161924
-0.0545415617074293
0.10201318951307226
0.04487253300214067
-0.023897909184166788
-0.045785081195419075
0.012632228413954491
-0.06735138462338686
-0.11096944498559691
0.012950595444160662
0.0569844954887847
0.04593917004510739
-0.04498873896026229
-0.0614787563922935
-0.022923163289952475
0.045780028435237874
0.04632754872064271
0.012761528224305208
-0.051805235051161636
-0.08718016640901802
-0.12321156440522679
-0.08708372324474173
0.0022814099843061486
-0.008425485978019731
-0.09231497487361551
-0.14459673065352252
-0.19671871403008429
-0.13395202920330368
0.017394891401249113
0.027730149483871314
-0.020607467296233382
-0.04813375757528321
-0.12482016280108066
-0.09519575228559252
0.006232880089096393
0.2292061651491768
0.20315245809812055
0.06542354576279605
-0.019695946918684343
0.04221847821025926
0.15113331335602131
0.14520607288013643
0.08394058920340353
0.16092932089933915
0.0737729110478349
0.01716309420388229
-0.0653861912839141
-0.029680748393222767
-0.055273200655380494
0.11357406285025723
0.04642975893714668
-0.12273541559787514
-0.13966585265399123
-0.12941065697433463
-0.20121679447423246
-0.29482352236512865
-0.32565091703010973
-0.15396601449501246
-0.05852113211176485
-0.08668044852856166
-0.20465505051916758
-0.19707738569463273
-0.14736156371023873
-0.12633068435110817
-0.10654780721297469
-0.015875778376715832
-0.03389732335182488
-0.09549519848589005
-0.1973734507560817
-0.19007859227085483
-0.09838806458660704
-0.03454067051508086
-0.05401740583316783
-0.1213855092250713
-0.1685517287366805
-0.10407496633410585
-0.026353945011820035
0.03338447251491433
0.05153122476284344
0.0935551572317942
0.06779300883392436
0.06933106675012524
-0.03482753294601604
0.004994207810357976
0.16041540707583235
0.14643513323493806
-0.09189337393884633
-0.13986515364002128
-0.1968364776293976
-0.08198070473264601
-0.1230220608159909
-0.19222830903662513
-0.18809809910571917
-0.19951290235719543
-0.103631749514285
0.01990297984209194
0.0664865449511362
0.07838270494905811
0.14496555767613628
0.24214793245838795
0.3089240570864775
0.4064989949503577
0.3982610794867363
0.4726080306171565
0.4070518814831503
0.2502942790207819
0.046459669748599344
-0.11498834536395375
-0.15944322728939408
-0.16756968982043613
-0.1266789177733918
-0.07998658246994288
-0.03087723962495046
-0.04444801760914166
-0.019442080131813477
0.059108478115665886
0.04994186810651019
0.12654164783673627
0.15784131541431828
0.14273916367623168
0.15592137325402905
0.1359882220727836
0.17463886057934508
0.0893504853736059
0.09077878080784785
0.09417154865765864
0.08612745632012664
0.09351315761000559
0.11046242297276954
0.12550923830365757
0.1369429493933707
0.1542406562846762
0.09124519427512312
0.03577736145754906
0.02544878647483506
0.06428862150821268
0.16433483644812286
0.12687557073320826
0.09193146955699213
0.10863750090286825
0.2100256263606466
0.20144813424513286
0.14688313022047894
0.16172682433812313
0.14831573206485393
0.09946336465858147
0.037146177998281876
-0.0928994976394365
-0.14285528409107984
-0.07651440165840881
-0.006246861172410467
0.018991308510774185
-0.06806005938028623
-0.10621643730943425
-0.11386960497825505
-0.05484280082369658
-0.017267333659204742
-0.09805624990767758
-0.11206866000176885
-0.07780875548884503
-0.02424466658478419
0.05244309934299812
0.11959890373424231
0.22152185505551658
0.3362494515998473
0.37207159471579987
0.5371570753498596
0.4754233244168229
0.22565734716207275
0.0050633870835660455
-0.06129452990462281
-0.20334472568370576
-0.21522217359054951
-0.17750324267786532
-0.17215137449469953
-0.07889972102196038
-0.05695739030482996
-0.13191417683494594
-0.122321859691079
-0.04998744218498888
-0.06225127810447931
-0.0873755709750875
-0.0837437500984548
-0.07627672652953704
-0.10206021962018602
-0.12450560950727135
-0.08580718275571142
-0.07001764973838015
-0.00951753701294783
-0.01320673910636222
-0.008411156406575221
0.050936215710587485
0.10014469517877991
0.06415930484390453
0.02770669449106883
0.013158933152603969
-0.013743692815906483
0.00011601473017724961
0.05602101162178241
0.06139391345575117
0.13482218769053192
0.17782177075230843
0.2642546049815788
0.3274858129642591
0.6008070060461426
0.8264189144500844
0.9686563680639537
1.0885168490896662
1.286810992597915
1.1738403092721423
0.9888087715904166
0.6882760686939442
0.2619015395828377
-0.22753774494463674
-0.6766815305952802
-0.8956198512769815
-0.9143856894022337
-0.9149380765166479
-0.7432416908929905
-0.5207777853798083
-0.36854217774404385
-0.24666241902087427
-0.16764632000927732
-0.1486094423651601
-0.10549993519653106
-0.0849576830447305
-0.17635828087603317
-0.2612088924388534
-0.2550071408252841
-0.1962652005633605
-0.15645642693266976
-0.12625908677462627
-0.13988593036671038
-0.16042516664860984
-0.13604667203247206
-0.10973570678827718
-0.09690853597086435
-0.11107868583228986
-0.12909564967677845
-0.11246052202980328
-0.05370305516683266
-0.02970878830277328
0.029773998022398794
0.11669858582733635
0.1838517783618306
0.20707880956088953
0.3005489311947047
0.35255855170203
0.40972776225617413
0.45893256654558723
0.46711653510495277
0.3708566612184985
0.26083837710929675
0.1499671434543693
0.06037152203850468
-0.045878125018692595
-0.21258990395723132
-0.33425209863761074
-0.3732422202447371
-0.3064229327098333
-0.14524072236936397
-0.07858472122398533
-0.08374936935200965
-0.12348369432001641
-0.10976454118441084
-0.059931718419905536
-0.01125004567643735
-0.06422650333486601
-0.09005524903999954
-0.05465107797790486
0.021158667349610374
0.004023050999736766
-0.11892422425457816
-0.2326909718695852
-0.25495067429170637
-0.24234496776186887
-0.12957796499967666
-0.08585886553750388
-0.14300827018674522
-0.27797886770458724
-0.36023058901679283
-0.339223196295966
-0.18049941731708385
-0.0007970100488585707
0.03706461998668953
-0.03531017112414436
-0.11435514887579856
-0.10879320448444996
0.09165533070223475
0.21177949658283518
0.13267019240786473
-0.11425336723757254
-0.03786053921314245
0.028679036230345692
0.023520284873092878
0.012290396305402518
-0.09405652285471344
-0.21194863506746897
-0.16867683708668957
-0.06376844696928508
0.05620158464887559
0.22542670396038567
0.2973578081547301
0.2938625965303566
0.11879158204990703
0.01206861169462875
0.003106957953631778
-0.01766197788899541
-0.07878098609590986
-0.11092450759344119
-0.09867311898464538
-0.06183833914646998
-0.035116105410759796
-0.061396158740725626
-0.11989622502075403
-0.1342505233235416
-0.16066573490157654
-0.17986083100645645
-0.17361740415719107
-0.13902692908121247
0.003148502128343708
-0.009668151952616832
0.07110498962088668
0.12516236114740958
0.12832859627950227
0.07932902926831698
0.048840177565200094
-0.0006452497247075861
0.012633486384853343
-0.0011701461155715631
-0.04573631369574299
-0.02308960564254703
0.014272558529401458
-0.007527983488254862
-0.014977104121345508
-0.05683968190633698
-0.08679356416863493
-0.05966186134978163
-0.05577843979059405
-0.06392448690766322
-0.06513603012874813
-0.04040024975027334
-0.038205548389249444
0.019637739819072714
0.02506688028777681
0.0007222112606623948
0.04493289784742416
0.06858563245479107
0.04082910194133543
0.013451727731991055
0.06548650410040333
0.1576149784725221
0.14423935266252186
0.09290195992750472
0.08438482710426831
0.08797090434483829
0.07244062571851434
0.04855080958343086
-0.0760249248650155
-0.10532760992734858
-0.09721517683306213
-0.0038041304714011293
0.013600027371461959
-0.04627850770442198
-0.10881511951369091
-0.14789848255259785
-0.06671805607994896
-0.0659780491856814
-0.08043997006164982
-0.22322424379395311
-0.25203306691577587
-0.13399568806812778
0.006471242127876975
0.08968970550754243
-0.04000223339133996
-0.08654537335356788
-0.010894345950795581
-0.0348259593631145
-0.12162757427525545
-0.10899293176979027
0.010593543726635929
0.04956755469810903
0.07669844738018483
-0.00807577107509555
0.022290073008607414
0.16058297424820972
0.16024751731490666
0.033309561045939184
-0.07933202631980807
-0.13300671621089932
-0.08380324825161567
-0.03399108308122481
-0.05001620426128539
-0.05869747345405085
-0.06760949007121353
-0.04890417784428122
0.006606731711800373
0.027930728675119726
-0.006729330068999256
-0.03346080486368269
-0.032678788962409916
-0.008550285283715292
0.007124201611368619
0.03154059890157479
0.03771793791771702
0.03444341078661545
0.06884491103194984
0.0737558220951211
0.026409772359466954
-0.05124185026981527
-0.0698090067159502
-0.04531711829864861
-0.03033075051703253
-0.03703373669987804
-0.059790939690437306
-0.08140937218347738
-0.1148844493674302
-0.08780853559477955
-0.03822001260797993
-0.01735988452066506
-0.019485129040699573
0.013439800449320582
0.02307500693796241
0.03917694917132647
0.029881172009003698
0.015936697901143576
-0.021358863368530975
-0.039473232658285964
0.0003088028546001931
0.02553960092127268
0.04066994787391702
-0.00043503805181099864
0.001469529137084119
-0.0042903844526051005
-0.03957791793857779
-0.13423505245768796
-0.14004463970494585
-0.16624143899308552
-0.11766246651620749
-0.10119437642305307
-0.10826673785204188
-0.1095707637246938
-0.1491596762884585
-0.0894118109867871
-0.051774946628186824
-0.012886538967876615
-0.07916592982401971
-0.11190172306687063
-0.1560965300087498
-0.11218140541122201
-0.026758862999425426
-0.037572327137441464
-0.07716438841999618
-0.1258337679016899
-0.11134979418944957
-0.08108765219231802
-0.04188052799199388
-0.12248276815489223
-0.08273449000653366
-0.06519246860518835
-0.07079261428573846
-0.036665719904027005
-0.04326927697936825
-0.05376927569456491
-0.057638822034359716
-0.07188321564098074
-0.1349530687590692
-0.19414344392814126
-0.28119374716428935
-0.2798771850844237
-0.22488328666190327
-0.14271689257916886
-0.1837372756136636
-0.2763357196323727
-0.27573632816185445
-0.24041997761635336
-0.18981781354851524
-0.1611153677765143
-0.18396075720568633
-0.1669277150477088
-0.15497387956283992
-0.11938326915269737
-0.044892611796625626
0.015488987055555237
0.011962803377702669
0.00421295964096885
-0.02853640265289681
-0.003812923114523248
0.013247750435429195
0.016505937794440567
0.027274599983917347
0.05765141741781327
0.04872067197316593
0.038819669952943614
0.07035255977065025
0.033512359119751534
-0.0009235122289966147
-0.050488657328455894
-0.02772221735606209
-0.05065869742300891
-0.06975600465614995
-0.06023013591897669
0.01641191574911624
-0.019464353517674976
-0.05324673519001455
-0.07341522205627182
-0.09477538609877123
-0.08633700993027044
-0.014117450327508607
0.009708318533225624
0.029602954216939203
0.017964936088355088
0.022117946666335597
0.012543392823364696
0.050884096725070216
0.06132767969818942
0.06591639367587976
0.025222001979564257
0.042317124654138755
0.06267503618124964
0.20347882096426215
0.19469998193871862
0.0844864383259128
0.045425733678864155
0.08172839575490382
0.0957025243606785
0.051542672929387745
0.003235390155225726
-0.08810273791336526
-0.20098484681857098
-0.10859015253418847
-0.060893796334147265
0.007459717933497784
-0.08805399727718971
-0.12282851015417215
-0.12355565787046385
-0.10959830092274148
-0.142893299459891
-0.18974040432224573
-0.17819870662856413
-0.16221252354751886
-0.13873939512473854
-0.10354340303595719
-0.10933408631422281
-0.08466599788033535
-0.07358410515547974
-0.07843683078504404
-0.0918454379420407
-0.11277738609597543
-0.1306501102784534
-0.20617147396989682
-0.21911877920636702
-0.18446372437405906
-0.1133075482865471
-0.08960177632413924
-0.09981526041399758
-0.12364049663924292
-0.15129085214332927
-0.17631435376784377
-0.18127050551593607
-0.07780177595779486
-0.04044166981468228
-0.03755151255463085
-0.1003272410701761
-0.15874474683444123
-0.11625453730864518
-0.03289117035865938
0.030034822395552663
0.05167597575990068
0.05811059280911307
0.05218831895467341
0.049034629950337194
0.07508312966490749
0.1024576087315483
-0.12269062645581041
-0.21696735277228896
-0.16328243122061392
-0.07781713941094204
-0.042620654841296346
-0.034676417405592574
0.0037322568404371537
0.03627452081894972
0.06857071491724026
-0.0411374249729724
-0.15393446185724635
-0.20065335962215958
-0.16602048741024822
-0.16448447681100076
-0.1160186318568528
-0.10757883120629214
-0.11025339441701654
-0.15703990868584222
-0.08362790711614143
-0.02787343976262624
-0.03717315146630962
-0.08304518255869153
-0.10981186929309367
-0.12299013700760233
-0.022699914715774483
0.010049885215518833
-0.07058019696575671
-0.07703533058998938
-0.08957079608060423
-0.09330170045830016
-0.02607679715999786
0.07480198846157984
0.015815250493995126
-0.06437633763513262
0.0006900386762794808
0.03921594156845176
0.17188168778554747
0.25886761050914114
0.09433473050395691
0.14559253541229927
0.32276940378054175
0.3893910111579
0.5213895495049111
0.6370542169135663
0.8177156205621103
1.0194069782322606
1.1858291229972866
1.2226278963233077
1.159273588768123
0.9999244377121439
0.8082492993847084
0.5181278205781722
0.214454537048694
-0.08589048009318981
-0.26472478696595886
-0.32141386096566754
-0.3333182024785173
-0.30140052539228446
-0.22992100572748164
-0.20395353923411041
-0.20301630851328517
-0.15264196326319307
-0.08995149673747867
-0.02422691068652795
-0.03932728454827486
-0.04612510872395867
-0.056837390702613955
-0.1219118072030087
-0.08249714415685827
0.07443724489916886
0.12973486967951287
0.10853456618308677
0.07030726985477376
0.07850469434705143
0.21462024381040345
0.3658953014997892
0.42232665457623586
0.4876623467577954
0.5174579896932067
0.4103747123523446
0.3071696416245836
0.267955218868588
0.23204686748822156
0.13577008127595724
0.1040840385407864
0.09733735103076568
0.13420863430055685
0.17757094501756132
0.16258561299035545
0.17233913193243022
0.07262771926486497
-0.0107587880961732
-0.017682689973479743
0.0021272224656962713
0.053187766812417575
0.11744827599930022
0.13349937621039099
0.18820845818431453
0.26251309389059285
0.32714270702297155
0.3500129099581627
0.42457089157294636
0.5841724013313834
0.6832726070596884
0.6814703617004048
0.7516285132088938
0.6570127392876228
0.4478157041637958
0.3386012577027624
0.20085966006776274
0.05409319444691485
-0.055186610758048205
-0.11152723088346589
-0.05714491273464928
-0.04022456688232706
0.021932509518648058
0.033685065755649
-0.08443125265277729
-0.07734489337214312
-0.050859587784625127
0.02262504946401067
-0.004014636294776497
-0.06898282346445717
-0.06021750164306783
-0.02266002052012195
-0.07878345229398154
-0.10279525610688878
-0.06896048836506313
0.0023701620830903214
0.014677158051126626
0.04080699262593923
0.09001132573903883
0.12473503607582914
0.12872736559263315
0.10753668832752461
0.10425128106310066
0.10075729875475048
0.05681762979493221
0.02260864521241973
-0.01693874935733619
-0.053792367779650296
-0.05907145075641984
-0.03699095682898984
-0.016980262651007216
-0.036600546742461604
-0.051824862722578025
-0.08343539873739408
-0.095920015291592
-0.0962046477682339
-0.1319675538273396
-0.14559398550451785
-0.14998942072472482
-0.1066895657370423
-0.0920730647273123
-0.08969744262541646
-0.06548893670947148
-0.11248984948369573
-0.14819934924325007
-0.16875432632735554
-0.18365244974501665
-0.1584212540395184
-0.1032795749106849
-0.11235515295810267
-0.1408691809103818
-0.17340453934635802
-0.15157700167470722
-0.11425788888269958
-0.1246099108921715
-0.17253812609471714
-0.17728346827267372
-0.1319705148031215
-0.08682506687688485
-0.06653751337053071
-0.08709388721150102
-0.06976219341413825
-0.1105500537472136
-0.09454039133803471
-0.09384741780742945
-0.0886288813835443
-0.1289314360956909
-0.19038217561145018
-0.12964638542707313
-0.14282305418541855
-0.20987006429711424
-0.2316492120710773
-0.209395497511911
-0.0930583640713365
-0.05288807406012941
-0.11349790838223617
-0.2573062344831252
-0.3209949712899334
-0.3436282000173443
-0.2557802044581896
-0.21117659869358818
-0.22917601217391148
-0.19073344226807581
-0.1310069030491927
-0.03555069675295958
0.00416376159324694
0.02387526016195482
0.025718580342748654
-0.020773121898085112
-0.08791793008788928
-0.09799495081924098
-0.09964472888263665
-0.1623399888046959
-0.20173702991678905
-0.15052397059277534
-0.07173838085701645
-0.03461441265176135
-0.0477429888762001
-0.05997517752776016
-0.0022251128615618787
0.03372135486618889
0.06938902033872058
0.08801532113709236
0.046148010900740444
-0.014776596387046897
-0.015470486164144162
0.0023739927078421097
0.029571830353583572
0.05244917825410628
0.0186619498329339
-0.007787995758309796
0.026943592287224205
0.03844182104790278
0.06513834725111836
0.06881357966324227
0.08092795001297842
0.05082740660321494
0.07906587335289458
0.10617312144640098
0.0543630975597133
0.014763850403467615
0.03925890800174925
0.03435286468270149
0.050525080942737874
0.027443101173943996
0.032271161196498144
0.08404653300917964
0.04439282755574453
-0.08385545331607748
-0.16896349317484632
-0.23726717711923262
-0.2557775922758438
-0.23445443389192766
-0.1734197974694991
-0.1903022829657185
-0.21528116223278065
-0.2067722374483108
-0.15283733915051445
-0.09613264037186059
-0.06812239396701525
-0.0758932659156506
-0.06794250841250296
-0.009490003100967148
-0.0009981931800169125
0.005408119297432144
0.05086200668247737
0.08295317708659483
0.10237100816533659
0.049817723665762814
-0.021104795850762414
-0.017840914584678735
-0.050871881676143316
-0.12661378768584308
-0.16195980093585227
-0.13147683758346485
-0.06785874579016049
-0.08035172907587301
-0.11723370407773531
-0.1972054550985497
-0.22055091006929972
-0.19014790960255845
-0.2082270794110226
-0.18689122444284156
-0.12261017136250008
-0.1749727182098464
-0.20101868798646072
-0.153057130435937
-0.07450046975937728
-0.019655511658558153
-0.059465160631907016
-0.14003474773925462
-0.12825957463884297
-0.026852370791832225
-0.01088507626915608
-0.0409497903800885
-0.11519188614075615
-0.20877064865144135
-0.21740133372416115
-0.1672599102418466
-0.09963542021204064
-0.13328256061140048
-0.17655129348126214
-0.18469496723293968
-0.14308332625244619
-0.14679395203622975
-0.12148993506153105
-0.11824320382529585
-0.1280986959322794
-0.15413998255921024
-0.14105202053402455
-0.077222515815839
-0.03541833310256709
-0.022886803018772495
0.08723494352846209
0.17942137496836658
0.21130414428659972
0.3265806651565397
0.5067926525313797
0.6542448027158556
0.8029082653483031
0.9100094463661221
0.8559399704853019
0.6750338489098275
0.48804217775077174
0.42866721216879844
0.4067423689587676
0.32987410478317714
0.2494422298035065
0.17672583275401588
0.1046879910739239
0.13028409326252344
0.2521396400773921
0.3862863176498511
0.2938932586203248
0.20210344480987943
0.12468713429186784
0.14793774471055848
0.20723235816477714
0.30745695700685405
0.26348922529070196
0.16164077411333877
0.05032404414858049
-0.02589344458397419
-0.25459895631336216
-0.47495710922702594
-0.49012513512931655
-0.5467750694554872
-0.627347736596829
-0.5405502884283389
-0.5711564968511764
-0.5690006218311899
-0.5235299411379865
-0.37511415023448835
-0.31117928667557704
-0.2788517730620429
-0.20078259262788375
-0.14894811677951075
-0.12493201913682012
0.000294248898910332
0.1056629222144212
0.11248702607504607
0.15564864162663017
0.1664585230395525
0.08913004703870414
0.017300987353077335
-0.11811373693107038
0.127554897125285
0.10665846075585905
-0.03191048349548353
-0.10017950435387557
-0.19527943819705307
-0.20048124124742245
0.0390214466475286
-0.05423852080170144
-0.06135114103692407
0.00034579997308992194
0.16051338971790985
0.1893555637706702
0.17525168639115019
0.04320529958499364
0.12713378908123418
0.23794074276133137
0.20024296433382888
0.19248993936516534
0.20622746891637656
0.24793162779312217
0.2043795775499173
0.20071625280077732
0.1480782106706482
0.11850626266323427
0.13979006086356172
0.19118556481686888
0.13710948980680937
0.08056570412480246
0.03776525406805592
0.020585227944337592
-0.04120766115321639
-0.034299685468516916
-0.0035812799312106014
0.07616586401671022
0.024796709993919697
-0.02364702614029751
0.053613530650550134
0.11249938455421443
0.1981873466257205
0.23985876840828707
0.16271002067298848
0.1293559854733672
0.14180650005040266
0.1712685829352658
0.18927425036198908
0.1612526053502008
0.08066065259069732
-0.02538413775948284
-0.12870685230541912
-0.1799374686395242
-0.23775592152939506
-0.20554180767817154
-0.14693748039295307
-0.17631891404332545
-0.24343177881637323
-0.26348764930986435
-0.31443919696477907
-0.27034625815371627
-0.2324399256831854
-0.2730479493806881
-0.4004977725727469
-0.44375924979951725
-0.3637932154629909
-0.22399415331537678
-0.013592028878354007
-0.02021759715572502
0.017044425683135078
0.11082089715235016
0.13003891468374426
0.10565107079730715
0.07486626366139076
0.07120463033130592
0.064453872292422
0.06168054225478044
0.05301320253304545
0.02884447231445625
-0.018294935360112036
0.012985789614394228
0.15333423138183983
0.24183131066664615
0.2323340534385937
0.19836460803883277
0.19294296891848828
0.22117917652338748
0.21173901185689914
0.17041078094107337
0.13127927326817768
0.15300947698525494
0.1412440934173666
0.10707042330750066
0.1527444915984144
0.22018250398978984
0.14249730953507067
0.039790505999817205
-0.05090011164784278
-0.10591666112812995
-0.11780969112485021
-0.09084973339546953
-0.08037209281082996
-0.16277206809311273
-0.2605166239941364
-0.32411724954797805
-0.3137841526677575
-0.295074051807068
-0.2704442968946136
-0.27329496863782543
-0.25555542425504096
-0.2061446541139378
-0.13600901095769902
-0.13138023035032997
-0.1608954960894008
-0.19449977190270795
-0.19207032068477825
-0.17042243998476136
-0.18742867483644104
-0.1894907738050567
-0.18488792168406643
-0.16873918531674104
-0.15036749450228576
-0.12453311556070157
-0.10634619966303571
-0.11693577263169919
-0.15344804442933446
-0.19751871822862743
-0.1698013114314154
-0.13624300245124654
-0.12048854497431782
-0.17721016594228572
-0.19047472543121247
-0.18433843990572407
-0.18863365374115393
-0.08423716206563825
-0.09910969235080236
-0.075636594623119
-0.05421476383326951
-0.10817221704650914
-0.21730188165305142
-0.20316421648072658
-0.1467357971931127
-0.11400320611544579
-0.06957253563923896
-0.0513399688765728
-0.0010085354045155648
0.006544727711958881
0.04143408807664961
0.03662837096821603
-0.009626149972946418
-0.04486163954880809
0.02127859329062229
0.05116612405176424
0.04990671657508161
0.02546553482330355
0.01885159233357947
0.12008337222941357
0.24713586591651848
0.14374146399115018
0.018862873379832196
-0.06037608763812696
-0.08838630371471234
-0.06778964708482174
0.01409538485623868
0.0689921055577983
-0.040023388189151604
-0.14711673120651933
-0.13205749499002323
-0.08784785455368642
-0.0372809835588126
0.05108415088317725
0.1849536471275055
0.3506368529598983
0.5583589561463059
0.7485233240108691
0.8678826604806542
0.9335393427350893
0.9306443652614584
0.9513206955847673
0.9647277875257929
0.8598465319007034
0.8263228047752347
0.8296447104234375
0.749399004121245
0.6131301368762703
0.4079018993945972
0.1993702875504091
0.017552368752643654
-0.04702615804401955
-0.07056253402233559
-0.16208862813405583
-0.23358331427921902
-0.3000585304644611
-0.31112013470453737
-0.21717691816426804
-0.04299489892968633
-0.003205411386303092
0.004605948892756229
0.03576256581220033
0.11426415273890923
0.11825142766212528
0.05676786554230978
0.06335964625447485
0.12749965073144287
0.18467088140758176
0.3375485860216729
0.5962901947787118
0.8821125479950122
1.1017800225690708
1.227010321075946
1.1757144202189838
1.0047141393067842
0.6175973372529822
0.3387095823951284
0.22167860355533314
0.08529780221211802
0.0701728934252196
0.08902904090019897
0.08485560791371904
-0.05717718947958944
-0.06980547392425224
-0.12934641861471452
-0.1880954860413686
-0.2181160459758258
-0.26205035889315054
-0.2604308750174569
-0.15952694238388654
-0.023333939572436624
0.05045176298033821
0.046576085340832796
0.0746572143975675
0.14482792102192749
0.277859378566478
0.3526238911677556
0.2729550377277507
0.2228460688639059
0.2944746278017246
0.3640642940343428
0.4339698610913919
0.5380414270568656
0.5308399634726517
0.40446815650421264
0.3023625630541793
0.09808669323749192
-0.10624028700984184
-0.294648718188367
-0.523121453042301
-0.6686712390420678
-0.6777908703853909
-0.5657353843426813
-0.39670901333395037
-0.2711352900010531
-0.16540789746123025
-0.08577986601840765
-0.13191877869707053
-0.05192346480460122
0.03371389558409155
0.1472794019820276
0.10293765264812338
0.15463912391781406
0.05496518260622668
0.08098553125985442
0.13778829331606235
0.1403347562966233
0.0938396874152061
0.021358286686053662
0.0028290571632976214
0.043817085847615345
0.10397682680205772
0.12748487865360603
0.16237127374934868
0.17916819311129584
0.1274680555623604
0.14498017241917727
0.1928653511326332
0.28623850754293256
0.30287033775035643
0.21685452586773596
0.15944548315522045
0.1777044823318159
0.16232014982676113
0.13314534417314788
0.1902967730002812
0.2202245065952661
0.1831037237931597
0.06418120331657301
-0.016410434796913564
-0.05799201080754096
-0.19840876905151938
-0.3950022731650116
-0.45220452066992767
-0.40505959483457454
-0.26134492197776305
-0.12394445174562507
-0.14263718457257438
-0.21015628269043335
-0.19567938499944368
-0.11139571323931027
-0.05101296243478412
-0.05966660220481934
-0.12065108398181948
-0.12930412518283063
-0.15733990473293366
-0.13469457746448066
-0.1101157191436459
-0.05656913291268653
-0.00729675499746274
-0.00025762407383966845
-0.022142146063673818
0.018348503773442215
0.03341582075746666
0.14449496539805629
0.17049906187683828
0.06948107380474522
0.03536462763432141
0.055480891453209724
0.01847551900224545
0.05671456046186324
0.07825297172460867
0.03525292235965494
0.019534803633338038
0.005683551187727287
-0.016710541007210145
-0.05977402192586334
-0.09181244273988029
-0.11743145246426306
-0.19396165165876128
-0.21338971619781105
-0.1683677668646728
-0.14256325447228363
-0.1578345648313526
-0.20553059049731015
-0.265484201734852
-0.30076468676768753
-0.21885287354078553
-0.1497439058582115
-0.10140081518602373
-0.08275180623351419
-0.19489734897166733
-0.21397552134062559
-0.17636834710384458
-0.06094193734254037
-0.005641062080366077
-0.04624686884797036
-0.15359486310130632
-0.15151012658085347
-0.109733147687271
-0.14772809197155068
-0.11719639705290158
-0.09164372695298739
-0.07518983239245058
-0.07341538721690169
-0.13130801096515224
-0.16631382464939193
-0.12984523697973488
-0.10613952002214602
-0.05712906791505412
-0.14644614942515582
-0.17493086828678917
-0.21517954014400853
-0.20817703882300043
-0.158120535414487
-0.13725441420854279
-0.20733443176478583
-0.17237157257994673
-0.12956098916033715
-0.12074086844685628
-0.10564517223607833
-0.09072851719830644
-0.12690429145553747
-0.13582489029666836
-0.1556135285780324
-0.15939801159510547
-0.12124585401750826
-0.13255042703340764
-0.1470329708274019
-0.12541686557522208
-0.08891004143616527
-0.08774788754025176
-0.14079368470014597
-0.20619236141657882
-0.20867390253528262
-0.19461202171831338
-0.20675967351110724
-0.19533215495467982
-0.21483176581008867
-0.22941289423390732
-0.21881618096288213
-0.19715109633793004
-0.2052820601819289
-0.21621576092650097
-0.22386272074338465
-0.2411535984009609
-0.22767229447664117
-0.19086799670181942
-0.16309059762359834
-0.195902762679518
-0.27192970139406547
-0.328980956481322
-0.32401532763718077
-0.2344547689137434
-0.19232858049104484
-0.29619755824226224
-0.3819730748976147
-0.3653875136050042
-0.3421999325588547
-0.27483643124679996
-0.2067603611707527
-0.20783173334632987
-0.17123138603629018
-0.1322738470466785
-0.0776314205821293
-0.014245429234463869
-0.0038417719908765413
-0.058941517951830114
-0.07758701216192199
-0.041660304398176196
0.03528592504962
0.11365754073321166
0.1758721597371466
0.2020139370849539
0.17903956483608235
0.06188848493885596
0.006845229604116099
0.041337967332572834
0.10430936826531445
0.07906012062616341
0.03380733443656775
0.0528638396633439
0.13033997339157455
0.1205922592365149
0.0301913555436521
0.00020274873770353974
0.011629376848170614
0.038060351377026735
0.050701447210966144
0.06771688296079797
0.08439831542866527
0.0982585447151757
0.05101760053854515
0.022759638868769777
0.047871563473195045
0.027026642564153686
0.06944072084503389
0.09344106695839285
0.09681124261097868
0.0625415474107105
0.09031433743843276
0.10917030989539311
0.10233864570175455
0.10439881092158187
0.1269662581987404
0.10790931302020412
0.10623208794833663
0.12964854840493167
0.14557111088982416
0.1595574955979127
0.12804227697299103
0.01663017314696469
-0.06627456643711604
0.035431425645380155
0.12919903637263375
0.15991019305373833
0.1623419255782007
0.10274135986853872
0.02505047137250571
0.058289495590431395
0.10144710113813493
0.15538014740645706
0.20796759153076605
0.2349324772925997
0.21132703631109984
0.25666000851392456
0.24951318587328442
0.10582613398924279
0.0674149378420289
0.12135108827672692
0.19772535731418417
0.21558493920996985
0.21691027093862436
0.2027318276290559
0.23577304430498824
0.19702207716650255
0.07948488084698302
0.0646536132683887
0.09154026993275433
0.16366759323262325
0.1893053348523241
0.12340657790629544
0.04594028699187441
0.05811539026280943
0.16924971432631375
0.09596517549724459
0.10713198695511927
0.0950769408915943
0.1936672500814764
0.26646181857285745
0.26498454032647456
0.25305460960945925
0.3423554012904374
0.5112574149873079
0.7053739946995723
0.8587976267367865
0.9650621748808015
0.9852958924683834
0.8929833688806985
0.6809427351937507
0.5619335781803505
0.5341768627333887
0.47346964064451846
0.3835169124963608
0.31065210028535883
0.25566953861202624
0.17277647209943348
0.1502605483050511
0.17909297452682407
0.1852062060362836
0.08040681907701708
0.06875876246572321
0.01486079490858866
0.02982087687127688
0.0819447116114062
0.09245326573723411
0.06702714832554091
0.08102084697744233
0.1325069014502544
0.15760683631641575
0.15806829489340943
0.25709163550404257
0.4116418391069171
0.47018907540991406
0.5042416838661085
0.5826695021198187
0.5955725403911083
0.48875327344404873
0.29916406502691417
0.10880905283150516
-0.1127720709670807
-0.31973092240465817
-0.4861969652771756
-0.5308135537200739
-0.5578621342799301
-0.582150544622318
-0.5395280440607592
-0.5434205425493586
-0.531244852197736
-0.4819874738921769
-0.47010643428058185
-0.4698916383414249
-0.4480886686843967
-0.4017044699021328
-0.3920507749413805
-0.3557334208840337
-0.36104353151615265
-0.3592889498472148
-0.3209292711364009
-0.26258102245657644
-0.24983539795105025
-0.24983919979700764
-0.18968919419264285
-0.12621881164757076
-0.0892743374825451
-0.10023392304206269
-0.14783875231546423
-0.11458836054613153
-0.03563921212686039
0.008710678954569229
-0.011625165650901381
-0.0448251767204676
-0.03328742305645452
-0.004908851569432798
0.006707795198839406
0.004527211871031334
-0.02734754098356862
-0.07066806463463804
-0.08782162435206753
-0.029804348698584504
0.01691946426621621
0.01330638284753205
-0.09126764079519595
-0.24068213798979665
-0.3702711355600441
-0.37662025769583884
-0.435612283023052
-0.4332265530110728
-0.35115879857582455
-0.30540649342190596
-0.35678311347292624
-0.32852412079498583
-0.28399245205347545
-0.22841290107361145
-0.18665545353273705
-0.14749727965738513
-0.1358334792796368
-0.1665031531851629
-0.10855064935573522
-0.03241364481024961
0.031562177949111064
0.16629714456766398
0.2693075591047165
0.2657225774652457
0.18593798713676524
0.172048892033897
0.2915402722976497
0.31796453208989917
0.15637631397879556
0.044619079660128375
-0.055613047675758004
-0.0958866372011421
-0.1149436638523818
-0.17197110272465488
-0.29124031979847964
-0.35333123205801975
-0.38919353290546344
-0.29024921192996456
-0.1972217713404011
-0.18454323237867243
-0.16917888585007015
-0.10787102969301238
-0.050399362119659785
-0.03292376343615688
0.0031559528967672335
0.032771481522178736
-0.015171847091939972
-0.0025740557748464843
0.0035597405756609413
0.012341345173707552
-0.075461272054135
-0.09782261080839849
-0.0635435163012612
-0.0731908665655634
-0.05060862498545182
-3.8116706950308554e-05
-0.008721059153826205
-0.03478589231163218
-0.051493368538805484
-0.011451621316315996
-0.10184526647683989
-0.11202435998698601
-0.14688636908702346
-0.13946463826152433
-0.13862742861829913
-0.0864360355228827
-0.017308562309402586
-0.131169185407586
-0.21443210633722753
-0.3156094946447616
-0.30226510136060003
-0.45666540121891164
-0.44883243212671853
-0.39223305676516707
-0.3448220379601611
-0.3879215168580141
-0.3963065873827274
-0.35228995683550046
-0.3086025101192098
-0.2613788948735548
-0.2492434335666266
-0.30092919740605895
-0.3247893961133066
-0.28917801635349283
-0.20277872138921788
-0.14186888700325845
-0.17982066443683292
-0.2556269528225522
-0.284656769969578
-0.24899670441393396
-0.20528578297910727
-0.19574020014341564
-0.18567758176829918
-0.19245876302049725
-0.22293472130619252
-0.1515833021673143
-0.08334347936053077
-0.09997250351317555
-0.1906125999244077
-0.23528118244757135
-0.19679155192836706
-0.15346760343027754
-0.12052884632219896
-0.16928233550563387
-0.20775003974235595
-0.25361255026038587
-0.18148101500555258
-0.09222848353507151
-0.12353149694485455
-0.09490410482092071
-0.07897424705888145
-0.07079211693738952
-0.06142101990186766
-0.10016781192310797
-0.036771021699528283
-0.06055516695083557
-0.15877337761332966
-0.18301828642328577
-0.15380464076026368
-0.051550393988340826
0.017918810880600544
0.08547270018734232
0.045004852041294785
0.011485739751331492
-0.011106011862010545
0.0019198418599966072
-0.02566309040382153
-0.0004649187459433435
0.012170402898936006
0.024825800946542964
0.05995718446781484
0.0680882155673086
0.08467296526853896
0.0797247696340666
0.07962633612120806
0.11767944727123725
0.10313314154613529
0.0783849736072425
0.055596009926891676
0.007878618231759948
0.028470042545572727
0.08274085755214233
0.10384070558841235
0.05091638350251443
0.031452955833237095
0.033479549519155105
0.042867428089697956
0.05411931264077158
0.06906055785447945
0.0669751033584145
0.07394934478697007
0.1164888436335505
0.09268155523597654
0.06885981587523393
0.06650684671226825
0.0728281557476218
0.0801327979206099
0.13029858146699036
0.2097260137168367
0.22508426759487715
0.21078575686501266
0.18577515803949068
0.18435379365197013
0.16846440117567152
0.16980427629367922
0.14306085739635332
0.16006850998564237
0.21426451113403633
0.24034025608854404
0.20875139622369943
0.144953701478154
0.09399190897869969
0.10875418363522837
0.2057855081971649
0.26334389916763445
0.2334886312265061
0.20084289061524208
0.22723993126004594
0.2612232928150814
0.3464159200074174
0.405041429823947
0.3300904789794184
0.3295112846893113
0.22641867115351572
0.21598444382641174
0.27956120860316314
0.36179505842653603
0.3443972363164002
0.25012482314751094
0.25429412647586724
0.32508700627862186
0.29779106960861024
0.2830422528067006
0.3298068991524088
0.1323127203387724
0.2328233359335261
0.27665713117500035
0.24541490923286435
0.20982561110722864
0.2021979429486983
0.21537983300132413
0.2318128339169001
0.21035670514396954
0.16361249061879857
0.1075535198137677
0.07881126295710406
0.05326688468697233
0.024225374742602834
0.00044293346384630117
-0.0010763662491588555
0.02577810714345169
0.04000798765103203
0.018744639087764747
-0.0009191220714632187
0.00444946731444823
0.012056363973986017
0.04103440808849351
0.057659143825737336
0.05591752447844567
0.04315989562053252
0.1010350736518125
0.1279356939655646
0.1293567856578604
0.11600315695249441
0.0588746998656966
0.025854035006264986
0.030810033722262986
0.02080880038979821
0.036006267704018435
0.009816318393334411
-0.016078388549737366
0.00866300620617555
0.04319253422717528
0.06963432150836235
5.061439948139679e-05
-0.12123355840950145
-0.16201986822596637
-0.13272329994356158
-0.051368108859140116
-0.028687783962625474
0.024863017360683748
-0.04947113213612264
-0.052682808558374206
-0.046425681975310495
0.01118331463001987
0.021659346241328953
0.005454618916005266
-0.07327812509693327
-0.03630011661441074
-0.02020183474359183
-0.08542110679108916
-0.11442274620707371
-0.115243414834025
-0.10384576782755617
-0.11461006417297137
-0.1102778544593307
-0.14308624587177704
-0.12925586478556833
-0.11283757255321392
-0.14845785624133245
-0.14967749309535092
-0.12397952401650314
-0.08076246726882597
-0.07742618497684034
-0.10813669783010793
-0.155601959061475
-0.14605929670931028
-0.09003152075582246
-0.027590812665698017
-0.02849782839263512
-0.04663937454115416
-0.02311837148574969
-0.004775647933340316
-0.0010377009305896356
-0.042907501949598026
-0.10243523122990769
-0.13753220904130167
-0.14030200659198278
-0.12865475672046378
-0.13532785973059624
-0.2328383508649845
-0.36784973875429006
-0.5033502557127262
-0.5999730527671707
-0.6504196745989115
-0.7293216554185229
-0.8054235792847835
-0.8751905736886867
-0.7846564408262238
-0.6958596295077917
-0.674350110370487
-0.5876536495790678
-0.41251258878249875
-0.31687157601382343
-0.27360159874130996
-0.25573549008946583
-0.18718558195713875
-0.13916374137617393
-0.22897209118561923
-0.17918997515615498
-0.16733689839003524
-0.22197584858168512
-0.19126513999013783
-0.11618363086444206
-0.09369386429308135
-0.07453724930365468
-0.07790732978923609
-0.13223129721458715
-0.12641604132929296
-0.08678568996042069
-0.043770794246390965
-0.07908021983150557
-0.0852396551084228
-0.07701012707527566
-0.09076913990514252
-0.19432080047824107
-0.2590163589928911
-0.3551567219258991
-0.3203639852436946
-0.2806378578064874
-0.2577041046135373
-0.27171641157432846
-0.36686633798106305
-0.3743562840992811
-0.3380837198609079
-0.3376556052478539
-0.4136000429166191
-0.41078747291167006
-0.3871414418052952
-0.3891050780074019
-0.3231969335954601
-0.21180592941232979
-0.14616555116813457
-0.17628955329215534
-0.2519683603671554
-0.28825223242847
-0.31952744863903226
-0.2616462359199043
-0.10630393566921748
-0.031373143700657025
-0.03190990155974749
-0.05843572751006221
-0.05902201208534086
-0.05723786256784891
-0.05235984839275043
-0.06330965303335723
-0.10969915046018808
-0.10158440999545881
-0.12034954868232495
-0.050074189316688056
-0.1580407711952665
-0.19483119765299306
-0.09596958132613276
-0.13402349348278042
-0.2154201024969109
-0.25527321205434084
-0.24774462593490365
-0.1272242575440039
-0.13613537758704908
-0.1959696448666648
-0.1686077098375618
-0.10190576474641988
-0.20073578944174064
-0.16997786998752384
-0.09151217063764827
-0.08076288874372639
-0.06667274579076321
0.05987590191995629
0.15756422857137342
0.15450965975701825
0.14396428505890446
0.14608663602396388
0.10678152973201438
0.03716515418291666
-0.0031802270604764926
0.0054986778815073745
0.08332059874783371
0.1715293656275152
0.21760022138586022
0.23208574542382876
0.2874044858166611
0.30602927579264005
0.2793391951143641
0.27961362854214944
0.2833433907674394
0.2615259989187688
0.30423256416587996
0.29768580014149226
0.2553768553322723
0.2685978274703017
0.2940222714766425
0.2347105164617831
0.21136636534270448
0.27053668738849834
0.2615674698189234
0.2722659862046023
0.22921551845159016
0.1918804783464414
0.21104832036861543
0.2521587549664425
0.2645643927651448
0.2606345526149803
0.3223415546228493
0.43446444261097417
0.6427216492321692
0.7312724129894939
0.763403764781984
0.8074085451716306
0.757166956435595
0.6899336792132473
0.5517498596271606
0.3324263545573083
0.09303795019815692
-0.1573380320551067
-0.21060114098098093
-0.15710078432338392
-0.07279899463125711
-0.13165504382206816
-0.13432023972330875
-0.08213910421590787
-0.13200472060455692
-0.22517135682962242
-0.2763207775377988
-0.19918438240276748
-0.0898138162367128
0.014663305837182117
0.010021953181353072
0.004897216365212065
-0.004693473415977645
0.05569878217824842
0.015081517059153726
-0.04759433689146664
-0.025219435600425527
-0.0695469383845127
-0.1065978614823544
-0.08821902890256311
-0.09033759379473472
-0.13980266974183875
-0.2154566070052425
-0.28881768109231865
-0.4384252830730271
-0.5909939797506831
-0.6429757350378247
-0.5685419148904953
-0.5228617884964727
-0.46863199796680977
-0.38295063726885537
-0.29837176240407626
-0.21179790999478587
-0.07896557413459507
-0.13205956892214712
-0.12926737643091793
-0.14689186731285844
-0.17875057205301828
-0.17054948999157288
-0.15124739855452346
-0.15421310666214172
-0.1815452119908132
-0.16671933256160393
-0.14398265374929203
-0.11068028212286973
-0.05210640839662317
-0.023823227947775916
-0.02999069891964601
-0.04564681430866441
-0.023165398775248702
0.022343252853399498
0.05518314301932542
0.050115004114582085
0.012889372534765908
-0.009586469430952926
-0.04539812100443713
-0.03394082305778984
-0.002191732832079407
-0.02437321653948371
-0.08787395198205972
-0.15731501062017073
-0.23060469150482432
-0.20882420664471135
-0.1574855562670358
-0.13654464053426119
-0.16150094886506938
-0.1579566164269901
-0.16016361293518638
-0.10040080582478522
0.004380587461903007
0.07125492146312629
0.13257894096313305
0.1364412020984903
0.11134393647616925
0.1494406864756943
0.14810750842428255
0.208185581303866
0.2465812873288652
0.2504099706716659
0.21380924571982246
0.16221607437734575
0.1287494338218097
0.0366766739077653
0.09799289735839456
0.16221369448898515
0.18498715468784155
0.15821727795831864
0.09856918617779897
0.1093705210815179
0.12208923456301246
0.16525284253297756
0.06939365034664491
0.03908775380115537
0.03901767640828435
0.1089615049329391
0.12980729838828164
0.10031249661876485
0.06397315937904657
0.0712158012593963
0.11834172987923697
0.12494666369714469
0.12349168505691333
0.18948580925216874
0.3030230051458176
0.3976394655323514
0.4227559798552243
0.38849925998602153
0.3191239492491198
0.24963430973978773
0.23969500004018518
0.268187963631781
0.21761413775244776
0.19072664598804878
0.19526465671635107
0.20284898046488764
0.17586698996109262
0.15220850482465476
0.15950903543964046
0.03788115803563996
-0.04469091404453218
-0.07973941030374032
-0.08153960266069793
-0.09458273718162069
-0.015199579256831464
-0.026242585200993984
-0.0972100092704603
-0.041544178946663624
0.0025232258625220716
-0.016403524501763078
-0.0921162414638379
-0.17052194913566399
-0.16995211040221858
-0.12285787805283843
-0.08451106337585879
-0.11389112315956873
-0.08092155799868062
-0.025271327104067653
0.05431828109838599
0.12138840471129031
0.12189636634467349
0.12135005784192932
0.136725453065087
0.1740645354577146
0.22642796004762844
0.22687934470219662
0.18074222826508923
0.15437166737574914
0.19169748133909015
0.2332459903205144
0.28092895526913164
0.34306433450091234
0.3857008016525556
0.42090215114764895
0.48652983508684744
0.44841378870483606
0.5000127437406678
0.6979765493003525
0.636247616501854
0.5803989702416561
0.6382886561569943
0.6409068682247918
0.6652781147354736
0.5951420705257964
0.5019082833293038
0.4559706439055845
0.40749845857540956
0.3353371334131081
